# OpenSignals Text File Format. Version 1
# {"00:07:80:F9:F3:52": {"position": 0, "device": "biosignalsplux", "device name": "00:07:80:F9:F3:52", "device connection": "BTH00:07:80:F9:F3:52", "sampling rate": 100, "resolution": [16, 16, 16, 16], "firmware version": 775, "comments": "", "keywords": "", "mode": 0, "sync interval": 2, "date": "2025-9-19", "time": "9:48:37.952", "channels": [1, 2, 3, 4], "sensor": ["XYZ", "XYZ", "RIP", "RIP"], "label": ["CH1", "CH2", "CH3", "CH4"], "column": ["nSeq", "DI", "CH1", "CH2", "CH3", "CH4"], "special": [{"SpO2": [80, 40, 5, 4, 3, 3]}, {"SpO2": [80, 40, 5, 4, 3, 3]}, {"SpO2": [80, 40, 5, 4, 3, 3]}, {"SpO2": [80, 40, 5, 4, 3, 3]}, {"SpO2": [80, 40, 5, 4, 3, 3]}, {"SpO2": [80, 40, 5, 4, 3, 3]}, {"SpO2": [80, 40, 5, 4, 3, 3]}, {"SpO2": [80, 40, 5, 4, 3, 3]}], "digital IO": [0, 1], "sleeve color": ["white", "white", "dark_blue", "light_blue"], "convertedValues": 0}}
# EndOfHeader
0	0	33977	37440	33625	32172	
1	0	33984	37440	33714	32188	
2	0	33988	37440	33796	32273	
3	0	34004	37426	33876	32360	
4	0	33980	37440	33953	32424	
5	0	34004	37429	33992	32524	
6	0	33984	37440	34116	32646	
7	0	34008	37440	34168	32706	
8	0	34000	37428	34272	32762	
9	0	34004	37426	34344	32848	
10	0	33996	37440	34488	32993	
11	0	34002	37440	34536	32989	
12	0	33988	37448	34632	33104	
13	0	34002	37425	34744	33224	
14	0	34000	37436	34840	33248	
15	0	34004	37424	34944	33288	
16	0	33984	37436	35042	33396	
17	0	34010	37416	35169	33460	
18	0	33988	37448	35268	33516	
19	0	34004	37450	35384	33666	
20	0	33992	37440	35544	33676	
21	0	33992	37424	35636	33808	
22	0	34002	37440	35752	33914	
23	0	34008	37442	35864	34000	
24	0	34004	37452	35986	34048	
25	0	34001	37440	36176	34184	
26	0	34000	37432	36216	34208	
27	0	33988	37432	36356	34312	
28	0	34001	37440	36504	34364	
29	0	33992	37445	36608	34516	
30	0	34008	37425	36812	34564	
31	0	34000	37448	36922	34693	
32	0	34002	37448	36976	34793	
33	0	34012	37432	37104	34956	
34	0	34008	37440	37308	35048	
35	0	34004	37434	37352	35178	
36	0	33997	37440	37468	35268	
37	0	34005	37444	37601	35360	
38	0	33992	37424	37730	35436	
39	0	33988	37448	37844	35568	
40	0	34004	37442	38033	35724	
41	0	33996	37448	38080	35800	
42	0	34004	37428	38220	35992	
43	0	33993	37434	38392	36068	
44	0	33996	37428	38444	36224	
45	0	34020	37428	38560	36252	
46	0	34004	37440	38776	36386	
47	0	33993	37432	38784	36580	
48	0	33988	37442	38913	36664	
49	0	33992	37436	39000	36740	
50	0	34004	37440	39124	36832	
51	0	34016	37432	39201	37004	
52	0	34008	37432	39312	37078	
53	0	34012	37429	39432	37204	
54	0	34008	37412	39510	37324	
55	0	34004	37428	39589	37408	
56	0	33993	37434	39700	37464	
57	0	34000	37440	39776	37628	
58	0	34001	37436	39896	37748	
59	0	34004	37440	39956	37772	
60	0	34013	37432	40144	37890	
61	0	34016	37441	40128	38000	
62	0	34000	37434	40208	38013	
63	0	34004	37429	40322	38180	
64	0	34000	37428	40364	38228	
65	0	34012	37434	40448	38304	
66	0	34016	37432	40520	38328	
67	0	34008	37434	40588	38488	
68	0	33993	37440	40649	38560	
69	0	34012	37440	40856	38602	
70	0	33996	37440	40792	38592	
71	0	34016	37441	40857	38708	
72	0	34016	37432	40952	38744	
73	0	34008	37432	41068	38832	
74	0	34016	37441	41096	38904	
75	0	33980	37416	41096	38856	
76	0	33982	37440	41168	38928	
77	0	34036	37420	41264	39018	
78	0	34024	37412	41192	38969	
79	0	33988	37412	41233	39018	
80	0	34008	37432	41296	39024	
81	0	34016	37437	41444	39120	
82	0	34004	37448	41336	39100	
83	0	34012	37440	41389	39096	
84	0	34009	37433	41388	39120	
85	0	34000	37448	41418	39112	
86	0	34016	37434	41560	39180	
87	0	34008	37421	41456	39189	
88	0	34004	37432	41468	39168	
89	0	33996	37424	41480	39124	
90	0	34010	37440	41528	39072	
91	0	34012	37436	41496	39148	
92	0	34012	37436	41506	39064	
93	0	34012	37412	41612	39051	
94	0	34010	37432	41492	39040	
95	0	34000	37440	41564	39032	
96	0	34008	37428	41481	39016	
97	0	34004	37441	41472	38984	
98	0	34024	37440	41456	39052	
99	0	33993	37434	41445	39040	
100	0	34008	37440	41453	38960	
101	0	34006	37442	41473	39008	
102	0	34000	37448	41400	38986	
103	0	34008	37434	41364	38904	
104	0	34016	37420	41400	38858	
105	0	34016	37424	41416	38877	
106	0	33990	37430	41284	38824	
107	0	34020	37420	41236	38845	
108	0	34008	37432	41248	38845	
109	0	33996	37440	41174	38745	
110	0	34000	37434	41144	38704	
111	0	34022	37420	41101	38696	
112	0	34013	37408	41040	38694	
113	0	34004	37426	41056	38706	
114	0	34000	37440	40960	38664	
115	0	34016	37448	41040	38556	
116	0	34004	37432	40872	38585	
117	0	34008	37442	40808	38489	
118	0	34013	37432	40784	38476	
119	0	34009	37424	40708	38376	
120	0	34016	37428	40744	38320	
121	0	34000	37434	40720	38316	
122	0	34005	37426	40540	38236	
123	0	34004	37440	40616	38145	
124	0	34017	37432	40424	38188	
125	0	34008	37424	40416	38136	
126	0	34008	37448	40308	38076	
127	0	34012	37444	40248	37937	
128	0	33992	37448	40192	37921	
129	0	34000	37448	40122	37873	
130	0	33992	37448	40056	37700	
131	0	34004	37440	40032	37672	
132	0	34004	37440	40048	37617	
133	0	34000	37440	39897	37582	
134	0	34004	37448	39800	37426	
135	0	34004	37444	39736	37381	
136	0	34001	37432	39672	37308	
137	0	33992	37440	39600	37200	
138	0	34012	37443	39632	37136	
139	0	34012	37413	39453	37017	
140	0	34000	37436	39400	36980	
141	0	34008	37436	39320	36856	
142	0	33988	37432	39236	36812	
143	0	34004	37436	39193	36748	
144	0	34001	37425	39098	36589	
145	0	34016	37412	39128	36500	
146	0	34012	37432	38956	36456	
147	0	34000	37440	38960	36412	
148	0	34004	37448	38928	36240	
149	0	33988	37460	38749	36209	
150	0	33996	37442	38738	36104	
151	0	34008	37436	38600	35944	
152	0	34000	37436	38596	35876	
153	0	33997	37444	38460	35820	
154	0	34000	37432	38364	35692	
155	0	34000	37429	38304	35568	
156	0	33996	37432	38280	35540	
157	0	34020	37424	38196	35368	
158	0	34000	37428	38172	35352	
159	0	34024	37424	38036	35172	
160	0	33996	37440	37944	35076	
161	0	34008	37434	37865	35044	
162	0	34004	37448	37805	34899	
163	0	33992	37460	37725	34772	
164	0	34012	37444	37742	34688	
165	0	33992	37428	37680	34608	
166	0	34016	37432	37581	34500	
167	0	34016	37440	37450	34364	
168	0	34020	37448	37361	34324	
169	0	34000	37434	37292	34184	
170	0	34004	37440	37224	34090	
171	0	34000	37434	37160	33964	
172	0	34012	37436	37081	33908	
173	0	34016	37441	37048	33824	
174	0	34016	37440	36964	33672	
175	0	34020	37416	36888	33568	
176	0	34032	37417	36784	33456	
177	0	34033	37436	36752	33388	
178	0	34010	37436	36637	33272	
179	0	34000	37448	36576	33226	
180	0	34001	37449	36504	33108	
181	0	34016	37440	36490	32988	
182	0	34012	37434	36348	32908	
183	0	34008	37440	36340	32808	
184	0	34012	37448	36208	32780	
185	0	34004	37432	36154	32644	
186	0	34012	37432	36112	32544	
187	0	34020	37408	35984	32520	
188	0	34016	37420	35902	32416	
189	0	34008	37440	35872	32337	
190	0	33988	37472	35729	32225	
191	0	34000	37465	35650	32160	
192	0	33994	37444	35604	32085	
193	0	33996	37440	35528	32064	
194	0	34008	37444	35446	31937	
195	0	34002	37440	35274	31900	
196	0	34012	37444	35220	31832	
197	0	34024	37416	35076	31728	
198	0	34016	37428	35040	31692	
199	0	34016	37440	34880	31636	
200	0	33992	37461	34812	31541	
201	0	34008	37440	34656	31488	
202	0	33989	37456	34616	31444	
203	0	34008	37448	34428	31408	
204	0	33993	37440	34325	31326	
205	0	33996	37460	34213	31264	
206	0	34020	37448	34112	31208	
207	0	34012	37432	33972	31122	
208	0	34008	37418	33901	31058	
209	0	34009	37432	33756	31022	
210	0	34020	37428	33648	30944	
211	0	34016	37440	33520	30944	
212	0	34016	37432	33396	30842	
213	0	34016	37444	33284	30844	
214	0	34016	37468	33176	30796	
215	0	34008	37460	33104	30698	
216	0	34024	37444	32988	30648	
217	0	34028	37442	32849	30624	
218	0	34016	37434	32774	30601	
219	0	33972	37396	32643	30532	
220	0	34032	37428	32550	30504	
221	0	34025	37440	32440	30406	
222	0	34024	37422	32340	30400	
223	0	34009	37450	32253	30321	
224	0	34006	37404	32164	30281	
225	0	34008	37440	32064	30248	
226	0	34028	37460	31986	30186	
227	0	34000	37440	31885	30148	
228	0	34036	37436	31820	30112	
229	0	34000	37442	31716	30056	
230	0	34036	37472	31640	30026	
231	0	33996	37444	31557	30036	
232	0	34021	37445	31476	29954	
233	0	34034	37434	31400	29904	
234	0	34000	37458	31320	29868	
235	0	34029	37452	31246	29848	
236	0	34021	37472	31176	29789	
237	0	34009	37452	31096	29768	
238	0	34016	37456	31020	29744	
239	0	34016	37428	30954	29696	
240	0	34048	37420	30884	29682	
241	0	34029	37428	30812	29672	
242	0	34016	37418	30752	29652	
243	0	34036	37432	30682	29624	
244	0	34024	37452	30612	29520	
245	0	34024	37456	30552	29504	
246	0	33997	37396	30496	29488	
247	0	34040	37464	30433	29460	
248	0	34000	37440	30368	29428	
249	0	34052	37440	30301	29428	
250	0	34000	37440	30244	29388	
251	0	34032	37444	30208	29368	
252	0	34032	37429	30128	29349	
253	0	34008	37428	30098	29336	
254	0	34036	37466	30060	29356	
255	0	33980	37460	30000	29385	
256	0	33920	37361	29972	29316	
257	0	34016	37498	29920	29305	
258	0	34016	37464	29888	29302	
259	0	33996	37453	29856	29360	
260	0	33994	37444	29825	29360	
261	0	33988	37460	29789	29356	
262	0	33968	37424	29760	29356	
263	0	33997	37472	29720	29308	
264	0	33992	37456	29722	29308	
265	0	33972	37428	29694	29357	
266	0	33968	37480	29669	29342	
267	0	33992	37456	29648	29344	
268	0	33976	37440	29656	29352	
269	0	34040	37400	29616	29404	
270	0	34020	37434	29616	29388	
271	0	34004	37428	29608	29408	
272	0	33997	37444	29629	29474	
273	0	34000	37460	29601	29456	
274	0	34032	37492	29628	29514	
275	0	34016	37440	29611	29572	
276	0	34008	37474	29633	29557	
277	0	34060	37504	29648	29592	
278	0	34008	37448	29657	29664	
279	0	34016	37496	29665	29648	
280	0	34025	37432	29672	29676	
281	0	34016	37515	29666	29787	
282	0	34032	37464	29702	29766	
283	0	34000	37442	29726	29808	
284	0	34033	37468	29748	29832	
285	0	34008	37444	29763	29926	
286	0	34032	37436	29797	29968	
287	0	33976	37468	29828	29975	
288	0	34029	37472	29852	30092	
289	0	33980	37493	29884	30139	
290	0	34024	37442	29890	30105	
291	0	34048	37484	29928	30196	
292	0	34056	37460	29980	30192	
293	0	34042	37442	29996	30265	
294	0	34017	37453	30050	30270	
295	0	34050	37416	30088	30333	
296	0	34004	37464	30132	30394	
297	0	34020	37468	30164	30368	
298	0	34098	37386	30200	30404	
299	0	34048	37476	30240	30456	
300	0	34048	37440	30292	30472	
301	0	33993	37460	30325	30476	
302	0	34052	37440	30372	30489	
303	0	34072	37432	30418	30577	
304	0	34032	37464	30452	30522	
305	0	34060	37456	30496	30580	
306	0	34160	37368	30540	30576	
307	0	34044	37480	30572	30640	
308	0	34080	37448	30612	30592	
309	0	34136	37464	30658	30596	
310	0	34064	37456	30698	30620	
311	0	34120	37432	30732	30683	
312	0	34112	37436	30777	30716	
313	0	34120	37445	30801	30672	
314	0	34112	37424	30836	30648	
315	0	34120	37441	30864	30660	
316	0	34091	37484	30892	30664	
317	0	34052	37508	30914	30744	
318	0	34112	37476	30946	30688	
319	0	34092	37540	30960	30684	
320	0	34120	37502	30994	30732	
321	0	34148	37528	31005	30726	
322	0	34152	37498	31030	30693	
323	0	34162	37468	31036	30702	
324	0	34184	37426	31056	30776	
325	0	34220	37376	31068	30704	
326	0	34272	37385	31068	30701	
327	0	34256	37460	31073	30756	
328	0	34276	37424	31090	30770	
329	0	34314	37432	31096	30694	
330	0	34317	37416	31096	30752	
331	0	34288	37428	31096	30708	
332	0	34248	37456	31092	30766	
333	0	34292	37401	31094	30717	
334	0	34308	37356	31092	30737	
335	0	34282	37392	31092	30680	
336	0	34257	37427	31084	30680	
337	0	34256	37396	31077	30738	
338	0	34264	37394	31073	30686	
339	0	34268	37384	31070	30692	
340	0	34264	37388	31064	30762	
341	0	34200	37458	31054	30760	
342	0	34248	37392	31044	30693	
343	0	34164	37452	31060	30672	
344	0	34214	37436	31040	30744	
345	0	34237	37408	31036	30688	
346	0	34154	37472	31032	30700	
347	0	34168	37448	31032	30704	
348	0	34176	37448	31025	30790	
349	0	34104	37508	31033	30704	
350	0	34152	37480	31036	30742	
351	0	34128	37506	31041	30736	
352	0	34145	37480	31057	30812	
353	0	34156	37472	31048	30754	
354	0	34173	37440	31056	30832	
355	0	34156	37488	31072	30788	
356	0	34150	37500	31076	30808	
357	0	34181	37457	31085	30892	
358	0	34229	37364	31084	30858	
359	0	34184	37420	31097	30864	
360	0	34170	37424	31112	30960	
361	0	34196	37417	31125	30944	
362	0	34180	37448	31128	31010	
363	0	34196	37406	31136	30994	
364	0	34166	37440	31146	31050	
365	0	34196	37436	31152	31113	
366	0	34176	37448	31164	31144	
367	0	34165	37466	31174	31122	
368	0	34156	37460	31188	31244	
369	0	34160	37452	31200	31240	
370	0	34176	37424	31210	31232	
371	0	34162	37452	31236	31321	
372	0	34176	37432	31248	31320	
373	0	34192	37434	31256	31368	
374	0	34168	37450	31276	31443	
375	0	34170	37460	31298	31464	
376	0	34176	37461	31312	31592	
377	0	34188	37440	31329	31616	
378	0	34188	37452	31348	31648	
379	0	34184	37461	31370	31761	
380	0	34182	37450	31392	31744	
381	0	34200	37456	31421	31872	
382	0	34192	37434	31440	31928	
383	0	34204	37402	31480	32032	
384	0	34196	37436	31492	32032	
385	0	34200	37440	31522	32171	
386	0	34197	37440	31552	32222	
387	0	34213	37445	31588	32268	
388	0	34218	37432	31605	32324	
389	0	34208	37458	31644	32420	
390	0	34226	37440	31688	32488	
391	0	34241	37440	31708	32574	
392	0	34237	37449	31728	32721	
393	0	34256	37416	31776	32726	
394	0	34248	37420	31788	32902	
395	0	34232	37450	31832	32888	
396	0	34276	37440	31864	33004	
397	0	34256	37432	31880	33048	
398	0	34276	37440	31909	33132	
399	0	34297	37397	31937	33196	
400	0	34268	37432	31968	33260	
401	0	34316	37420	32008	33333	
402	0	34329	37424	32024	33428	
403	0	34320	37410	32036	33474	
404	0	34344	37397	32065	33588	
405	0	34332	37408	32089	33600	
406	0	34376	37377	32105	33704	
407	0	34404	37345	32144	33736	
408	0	34400	37354	32141	33774	
409	0	34418	37368	32180	33848	
410	0	34404	37324	32200	33896	
411	0	34452	37328	32212	33949	
412	0	34458	37304	32225	33992	
413	0	34464	37296	32229	34104	
414	0	34492	37297	32256	34052	
415	0	34525	37308	32268	34104	
416	0	34481	37300	32290	34162	
417	0	34465	37324	32304	34232	
418	0	34461	37324	32358	34290	
419	0	34498	37328	32378	34328	
420	0	34496	37328	32384	34328	
421	0	34499	37321	32384	34294	
422	0	34485	37325	32400	34337	
423	0	34508	37328	32424	34332	
424	0	34473	37346	32440	34344	
425	0	34500	37328	32464	34296	
426	0	34478	37364	32504	34296	
427	0	34476	37360	32485	34354	
428	0	34465	37366	32524	34324	
429	0	34473	37356	32537	34368	
430	0	34465	37360	32534	34260	
431	0	34468	37344	32544	34216	
432	0	34472	37356	32584	34196	
433	0	34470	37340	32584	34185	
434	0	34460	37361	32584	34144	
435	0	34480	37336	32612	34128	
436	0	34474	37356	32584	34077	
437	0	34468	37344	32592	34052	
438	0	34462	37344	32596	34004	
439	0	34456	37344	32628	33944	
440	0	34452	37364	32636	33900	
441	0	34460	37348	32608	33920	
442	0	34444	37349	32621	33816	
443	0	34441	37364	32634	33758	
444	0	34436	37349	32613	33800	
445	0	34436	37354	32632	33710	
446	0	34416	37386	32632	33596	
447	0	34412	37384	32604	33556	
448	0	34392	37380	32605	33560	
449	0	34380	37417	32590	33504	
450	0	34392	37392	32596	33420	
451	0	34388	37381	32568	33313	
452	0	34380	37372	32541	33320	
453	0	34385	37388	32548	33220	
454	0	34388	37396	32505	33177	
455	0	34368	37420	32504	33108	
456	0	34377	37409	32468	33068	
457	0	34392	37416	32462	33008	
458	0	34396	37412	32432	33012	
459	0	34400	37388	32388	32944	
460	0	34408	37364	32356	32945	
461	0	34436	37377	32332	32828	
462	0	34420	37378	32300	32792	
463	0	34456	37394	32273	32728	
464	0	34480	37312	32225	32762	
465	0	34478	37320	32184	32624	
466	0	34468	37312	32152	32572	
467	0	34488	37312	32118	32592	
468	0	34476	37316	32036	32445	
469	0	34468	37320	31996	32384	
470	0	34468	37325	31964	32328	
471	0	34452	37324	31892	32266	
472	0	34464	37320	31840	32216	
473	0	34424	37440	31780	32120	
474	0	34453	37314	31732	32044	
475	0	34444	37376	31668	31992	
476	0	34432	37424	31604	31969	
477	0	34418	37388	31540	31790	
478	0	34417	37392	31482	31732	
479	0	34408	37386	31412	31642	
480	0	34396	37388	31344	31584	
481	0	34396	37372	31288	31561	
482	0	34409	37342	31218	31440	
483	0	34376	37381	31169	31366	
484	0	34392	37352	31109	31256	
485	0	34377	37392	31060	31181	
486	0	34372	37376	31008	31132	
487	0	34388	37344	30985	31133	
488	0	34384	37364	30948	31004	
489	0	34337	37404	30912	31032	
490	0	34356	37360	30908	30900	
491	0	34332	37384	30908	30872	
492	0	34300	37436	30896	30808	
493	0	34316	37426	30896	30837	
494	0	34305	37410	30912	30756	
495	0	34312	37412	30930	30732	
496	0	34316	37434	30960	30752	
497	0	34321	37425	31001	30728	
498	0	34312	37418	31028	30713	
499	0	34313	37416	31088	30670	
500	0	34300	37432	31140	30730	
501	0	34308	37428	31200	30704	
502	0	34304	37416	31260	30712	
503	0	34288	37408	31342	30754	
504	0	34297	37405	31396	30750	
505	0	34280	37392	31460	30720	
506	0	34304	37404	31541	30724	
507	0	34296	37400	31610	30772	
508	0	34308	37392	31684	30797	
509	0	34308	37384	31738	30826	
510	0	34288	37408	31816	30818	
511	0	34304	37396	31880	30816	
512	0	34304	37400	31952	30812	
513	0	34280	37428	31984	30880	
514	0	34284	37420	32025	30872	
515	0	34288	37412	32068	30862	
516	0	34297	37388	32097	30922	
517	0	34290	37410	32120	30892	
518	0	34297	37394	32164	30936	
519	0	34301	37401	32152	30928	
520	0	34294	37380	32184	30937	
521	0	34300	37420	32180	30940	
522	0	34304	37400	32154	30960	
523	0	34289	37436	32144	31000	
524	0	34324	37393	32133	31067	
525	0	34292	37424	32121	31009	
526	0	34336	37388	32114	31089	
527	0	34312	37396	32104	31044	
528	0	34360	37400	32084	31104	
529	0	34361	37400	32069	31108	
530	0	34360	37405	32056	31217	
531	0	34356	37377	32052	31248	
532	0	34360	37390	32052	31240	
533	0	34364	37392	32048	31296	
534	0	34369	37384	32064	31397	
535	0	34368	37400	32076	31468	
536	0	34368	37400	32104	31481	
537	0	34364	37384	32137	31556	
538	0	34369	37392	32181	31637	
539	0	34344	37388	32252	31716	
540	0	34348	37380	32306	31820	
541	0	34336	37376	32398	31988	
542	0	34316	37380	32500	32032	
543	0	34332	37412	32584	32145	
544	0	34304	37400	32688	32356	
545	0	34285	37416	32816	32409	
546	0	34293	37420	32956	32637	
547	0	34308	37412	33109	32724	
548	0	34304	37425	33300	32858	
549	0	34308	37412	33468	33032	
550	0	34297	37421	33640	33272	
551	0	34296	37404	33874	33460	
552	0	34284	37408	34048	33688	
553	0	34302	37380	34280	33852	
554	0	34284	37400	34570	34076	
555	0	34292	37405	34762	34208	
556	0	34328	37380	35044	34516	
557	0	34288	37400	35300	34733	
558	0	34316	37384	35617	34900	
559	0	34274	37400	35865	35084	
560	0	34292	37400	36160	35298	
561	0	34286	37400	36450	35600	
562	0	34284	37416	36768	35786	
563	0	34280	37396	37076	36076	
564	0	34277	37416	37378	36208	
565	0	34292	37410	37734	36444	
566	0	34292	37405	38066	36657	
567	0	34296	37412	38408	36882	
568	0	34268	37442	38720	37106	
569	0	34274	37424	38980	37352	
570	0	34268	37432	39304	37626	
571	0	34260	37436	39620	37848	
572	0	34268	37400	39948	38024	
573	0	34264	37408	40368	38261	
574	0	34256	37420	40568	38358	
575	0	34252	37405	40968	38620	
576	0	34249	37378	41212	38828	
577	0	34240	37396	41473	38952	
578	0	34265	37396	41892	39096	
579	0	34266	37372	42036	39288	
580	0	34236	37384	42318	39444	
581	0	34304	37352	42652	39616	
582	0	34281	37341	42933	39786	
583	0	34256	37362	43072	39940	
584	0	34296	37456	43410	40012	
585	0	34224	37434	43600	40165	
586	0	33976	37536	43736	40248	
587	0	34332	37448	43960	40346	
588	0	34244	37476	44124	40416	
589	0	34232	37468	44280	40496	
590	0	34282	37568	44472	40570	
591	0	34248	37405	44644	40644	
592	0	34312	37376	44704	40656	
593	0	34376	37308	44824	40736	
594	0	34378	37273	44953	40720	
595	0	34520	37336	45028	40736	
596	0	34369	37370	45040	40744	
597	0	34136	37488	45096	40792	
598	0	34364	37504	45120	40797	
599	0	34000	37560	45152	40720	
600	0	34337	37432	45136	40752	
601	0	34364	37344	45120	40716	
602	0	34084	37453	45108	40664	
603	0	34172	37442	45108	40584	
604	0	34176	37516	45024	40512	
605	0	34204	37532	44928	40464	
606	0	33964	37512	44836	40458	
607	0	33826	37556	44816	40384	
608	0	33874	37528	44632	40264	
609	0	33909	37568	44588	40173	
610	0	33964	37537	44426	40136	
611	0	33940	37516	44288	40028	
612	0	33828	37532	44116	39914	
613	0	33606	37732	43962	39841	
614	0	33924	37548	43832	39752	
615	0	34094	37420	43712	39649	
616	0	33972	37484	43448	39520	
617	0	34004	37496	43370	39476	
618	0	34040	37470	43172	39364	
619	0	33972	37512	43008	39262	
620	0	33850	37596	42721	39152	
621	0	33956	37528	42628	39044	
622	0	34080	37440	42412	38860	
623	0	34036	37520	42120	38820	
624	0	33972	37541	41997	38689	
625	0	33969	37536	41832	38608	
626	0	33992	37596	41604	38453	
627	0	33932	37576	41272	38392	
628	0	34064	37544	41056	38256	
629	0	34056	37525	40872	38088	
630	0	34064	37612	40648	38009	
631	0	33868	37720	40528	37924	
632	0	34160	37764	40224	37808	
633	0	34092	37742	40012	37680	
634	0	34052	37812	39920	37524	
635	0	34153	37736	39608	37420	
636	0	34080	37772	39512	37372	
637	0	33992	37792	39304	37250	
638	0	33988	37744	39076	37112	
639	0	34040	37848	38889	37032	
640	0	34144	37874	38624	36936	
641	0	34370	37896	38432	36841	
642	0	34361	37981	38301	36728	
643	0	34400	38080	38060	36684	
644	0	34585	38228	37920	36680	
645	0	34616	38448	37762	36616	
646	0	34276	38769	37544	36530	
647	0	34004	39440	37364	36408	
648	0	34165	39640	37249	36450	
649	0	34001	40064	37042	36418	
650	0	33936	40348	36956	36332	
651	0	34024	40529	36796	36297	
652	0	34210	40516	36628	36276	
653	0	33844	40800	36490	36268	
654	0	33488	40908	36326	36264	
655	0	33928	40705	36200	36324	
656	0	34089	40612	36096	36282	
657	0	34656	39916	35916	36384	
658	0	34812	39320	35794	36440	
659	0	34924	38336	35700	36498	
660	0	35254	37716	35624	36524	
661	0	34452	37072	35539	36524	
662	0	34048	35454	35476	36504	
663	0	34020	35900	35292	36634	
664	0	33328	36041	35232	36736	
665	0	35388	33356	35141	36800	
666	0	33524	36284	35060	36884	
667	0	32304	36264	35004	36824	
668	0	32164	35637	34912	36901	
669	0	32174	35636	34896	36997	
670	0	32180	35536	34804	37056	
671	0	32548	35293	34772	37176	
672	0	32728	35208	34724	37200	
673	0	32876	35264	34702	37288	
674	0	33066	35467	34698	37396	
675	0	33224	35648	34698	37569	
676	0	33344	35620	34737	37645	
677	0	33492	35752	34704	37656	
678	0	33580	35806	34740	37788	
679	0	33666	35918	34742	37844	
680	0	33812	36020	34788	37928	
681	0	33928	36028	34864	38074	
682	0	33944	35896	34940	38274	
683	0	33944	35889	34960	38320	
684	0	33824	35812	35016	38452	
685	0	33736	35784	35124	38448	
686	0	33609	35653	35242	38532	
687	0	33460	35520	35284	38744	
688	0	33428	35600	35440	38752	
689	0	33460	35641	35492	38834	
690	0	33548	35633	35620	38912	
691	0	33668	35734	35737	39020	
692	0	33805	35793	35864	39156	
693	0	33984	35928	36000	39244	
694	0	34544	36393	36140	39348	
695	0	35130	36848	36276	39472	
696	0	35960	37336	36416	39428	
697	0	36913	38128	36584	39612	
698	0	37876	38932	36722	39680	
699	0	38928	39164	36885	39800	
700	0	40296	39438	37020	39740	
701	0	40446	39237	37188	39916	
702	0	50956	41416	37344	39924	
703	0	44408	47808	37544	40112	
704	0	44416	38880	37692	40105	
705	0	40184	33053	37862	40104	
706	0	31413	40114	38097	40157	
707	0	35434	37608	38212	40305	
708	0	34096	37048	38380	40304	
709	0	33704	37137	38544	40492	
710	0	33116	37736	38820	40504	
711	0	33236	38080	38916	40452	
712	0	33712	37504	39164	40608	
713	0	33985	37480	39256	40570	
714	0	34041	37506	39397	40621	
715	0	34042	37085	39572	40764	
716	0	34144	37232	39740	40797	
717	0	33782	37570	39905	40952	
718	0	33788	37720	40144	40972	
719	0	33936	37536	40340	41080	
720	0	34080	37482	40512	41004	
721	0	34168	37524	40584	41192	
722	0	34172	37506	40760	41149	
723	0	34114	37425	41026	41232	
724	0	34025	37544	41080	41276	
725	0	34044	37624	41272	41377	
726	0	34116	37520	41452	41384	
727	0	34552	37497	41628	41544	
728	0	34618	37392	41746	41528	
729	0	34708	37404	41906	41512	
730	0	34852	37432	42032	41672	
731	0	34892	37372	42240	41548	
732	0	34828	37344	42320	41578	
733	0	34580	37432	42461	41648	
734	0	34810	37341	42708	41624	
735	0	36236	36704	42856	41498	
736	0	34777	37056	42961	41581	
737	0	35000	37124	43008	41440	
738	0	35072	36917	43132	41376	
739	0	34849	36874	43276	41314	
740	0	35268	36916	43452	41264	
741	0	35232	36952	43520	41208	
742	0	35104	37104	43672	41136	
743	0	35300	36992	43786	41128	
744	0	35284	37116	43978	41060	
745	0	35220	37080	44100	41020	
746	0	35145	37212	44224	40954	
747	0	35141	37096	44348	40880	
748	0	35164	37092	44432	40826	
749	0	35120	37160	44528	40760	
750	0	35148	37108	44692	40626	
751	0	35040	37200	44736	40620	
752	0	35152	37252	44852	40544	
753	0	35144	37196	44928	40464	
754	0	35304	37248	45012	40404	
755	0	35280	37313	45092	40376	
756	0	35272	37470	45192	40329	
757	0	35168	37612	45256	40336	
758	0	34896	37764	45312	40285	
759	0	35008	37916	45396	40242	
760	0	35052	37840	45440	40212	
761	0	35220	37981	45464	40192	
762	0	35584	38449	45540	40152	
763	0	35844	38720	45600	40132	
764	0	35770	39224	45640	40116	
765	0	35720	39448	45596	40088	
766	0	35372	39880	45676	40068	
767	0	35120	39672	45600	40056	
768	0	34328	40258	45676	40028	
769	0	34564	40696	45592	40012	
770	0	35088	40904	45597	39994	
771	0	35316	41596	45564	39988	
772	0	34968	42036	45569	39992	
773	0	34436	42436	45588	40000	
774	0	32759	42532	45476	40028	
775	0	33112	42380	45452	39996	
776	0	34220	42224	45452	40009	
777	0	34848	41672	45376	40072	
778	0	36440	41148	45341	40064	
779	0	37652	40500	45320	40082	
780	0	34784	39840	45276	40160	
781	0	33196	37912	45252	40140	
782	0	31744	35617	45216	40180	
783	0	31432	35048	45172	40260	
784	0	35336	34196	45172	40314	
785	0	33488	37244	45152	40308	
786	0	37204	31860	45086	40336	
787	0	36752	34744	45077	40416	
788	0	34936	35200	45048	40424	
789	0	32864	35795	44944	40506	
790	0	32261	35376	44942	40472	
791	0	31704	34954	44924	40512	
792	0	31376	34802	44888	40581	
793	0	31481	34696	44832	40529	
794	0	31908	34545	44800	40562	
795	0	32568	34456	44722	40572	
796	0	33066	34144	44736	40548	
797	0	33544	34144	44688	40520	
798	0	33868	34113	44588	40532	
799	0	34092	34212	44552	40513	
800	0	34098	34562	44496	40452	
801	0	33864	34884	44520	40472	
802	0	33690	35154	44456	40396	
803	0	33456	35424	44432	40324	
804	0	33384	35776	44392	40285	
805	0	33348	36132	44384	40298	
806	0	33480	36392	44437	40286	
807	0	33456	36544	44436	40192	
808	0	33822	36752	44392	40136	
809	0	33900	37120	44384	40164	
810	0	34000	37402	44424	40076	
811	0	34284	37732	44412	40088	
812	0	34988	37972	44372	40060	
813	0	35840	38232	44394	39972	
814	0	37104	38594	44428	39986	
815	0	37916	38901	44396	39912	
816	0	39354	39412	44412	39944	
817	0	40068	40112	44409	39852	
818	0	40824	40106	44452	39888	
819	0	41196	41196	44424	39816	
820	0	43184	40704	44424	39820	
821	0	41616	48208	44444	39776	
822	0	51368	34658	44448	39762	
823	0	46177	39392	44464	39672	
824	0	44608	40084	44452	39682	
825	0	48432	52996	44448	39656	
826	0	48368	31980	44432	39608	
827	0	36608	36986	44508	39504	
828	0	36060	36628	44412	39464	
829	0	35192	37337	44404	39412	
830	0	34426	37226	44400	39400	
831	0	34376	37204	44360	39284	
832	0	32850	38392	44348	39270	
833	0	33780	38008	44336	39173	
834	0	33896	37600	44304	39080	
835	0	34453	37066	44328	39018	
836	0	34560	37048	44240	38971	
837	0	34572	37312	44232	38905	
838	0	34581	37146	44177	38833	
839	0	34644	37360	44160	38724	
840	0	34372	37434	44108	38656	
841	0	34426	37364	44096	38576	
842	0	34584	37320	44068	38500	
843	0	34552	37424	44056	38378	
844	0	34600	37316	44048	38288	
845	0	34540	37352	43914	38184	
846	0	34320	37448	43868	38060	
847	0	34634	37300	43800	37933	
848	0	35536	37156	43810	37800	
849	0	34588	37444	43660	37680	
850	0	34742	37312	43580	37512	
851	0	35056	37240	43505	37329	
852	0	35053	37154	43360	37152	
853	0	34852	37208	43321	36964	
854	0	34848	37192	43124	36764	
855	0	34730	37340	42992	36548	
856	0	34692	37114	42850	36332	
857	0	34984	37192	42772	36089	
858	0	34816	37228	42484	35849	
859	0	34992	36924	42288	35604	
860	0	35368	37516	42100	35360	
861	0	35000	37238	41901	35092	
862	0	35084	36944	41709	34824	
863	0	35266	37088	41600	34560	
864	0	35072	37053	41226	34272	
865	0	35128	37072	41016	33996	
866	0	35124	37200	40744	33752	
867	0	35232	37068	40560	33460	
868	0	35096	37232	40312	33180	
869	0	35008	37242	40037	32916	
870	0	35052	37286	39760	32648	
871	0	35032	37284	39500	32384	
872	0	35077	37356	39172	32132	
873	0	35236	37545	38881	31880	
874	0	35305	37380	38464	31586	
875	0	35074	37616	38212	31333	
876	0	35032	37472	37848	31098	
877	0	35288	37524	37528	30857	
878	0	35324	37736	37172	30610	
879	0	35536	38028	36844	30372	
880	0	35640	38464	36532	30136	
881	0	35804	39016	36194	29904	
882	0	35728	39608	35832	29673	
883	0	35800	39716	35461	29464	
884	0	35604	39760	35141	29228	
885	0	34906	40152	34754	29008	
886	0	34626	40800	34424	28790	
887	0	34720	41568	34072	28574	
888	0	35292	42024	33696	28360	
889	0	34922	42369	33348	28148	
890	0	33864	42836	33004	27949	
891	0	32040	43464	32637	27736	
892	0	31906	42034	32290	27528	
893	0	34120	41705	31902	27322	
894	0	35740	42236	31601	27108	
895	0	34897	42232	31240	26908	
896	0	38004	41044	30892	26701	
897	0	36856	40280	30552	26500	
898	0	33956	39160	30282	26293	
899	0	30692	37168	29963	26082	
900	0	29384	35784	29665	25874	
901	0	31108	34544	29381	25664	
902	0	35032	34588	29085	25452	
903	0	35276	34652	28816	25236	
904	0	33912	36792	28532	25025	
905	0	37856	32512	28282	24796	
906	0	36248	33736	28018	24564	
907	0	33888	34276	27762	24332	
908	0	32492	34852	27508	24100	
909	0	32144	34888	27276	23856	
910	0	31604	34576	27032	23589	
911	0	31492	34440	26808	23332	
912	0	31484	34488	26568	23072	
913	0	31568	34830	26290	22805	
914	0	32430	34552	26112	22514	
915	0	33348	34248	25864	22240	
916	0	33726	34230	25640	21961	
917	0	33792	34458	25426	21672	
918	0	33896	34690	25200	21392	
919	0	33648	35128	24946	21108	
920	0	33552	35576	24706	20824	
921	0	33392	36024	24473	20544	
922	0	33461	36240	24208	20262	
923	0	33430	36664	23945	20000	
924	0	33476	36964	23760	19734	
925	0	33744	37336	23488	19480	
926	0	33888	37616	23236	19228	
927	0	33856	38052	22971	18977	
928	0	34144	38432	22724	18736	
929	0	34608	38960	22424	18514	
930	0	35416	39322	22180	18281	
931	0	36480	39748	21856	18068	
932	0	37600	39836	21529	17848	
933	0	38804	40400	21270	17648	
934	0	39872	40725	21020	17456	
935	0	41258	41116	20688	17251	
936	0	42364	40576	20416	17082	
937	0	44322	40248	20112	16894	
938	0	45792	39192	19762	16733	
939	0	46204	38585	19520	16556	
940	0	53448	34788	19250	16405	
941	0	43676	39208	18925	16256	
942	0	40036	42770	18612	16102	
943	0	26665	46368	18322	15964	
944	0	44128	52024	18056	15822	
945	0	47152	25104	17810	15699	
946	0	28377	48632	17492	15566	
947	0	38716	29473	17220	15440	
948	0	40076	35212	16936	15326	
949	0	32512	38816	16633	15212	
950	0	35041	36272	16410	15098	
951	0	33760	38016	16109	15008	
952	0	34208	37980	15910	14934	
953	0	33857	37468	15602	14873	
954	0	34584	37314	15440	14822	
955	0	34844	36928	15222	14792	
956	0	34252	37466	14968	14788	
957	0	34944	37170	14804	14787	
958	0	34808	37066	14612	14808	
959	0	34674	37102	14448	14840	
960	0	34852	37105	14219	14906	
961	0	34833	37140	14121	15005	
962	0	34948	37056	13973	15066	
963	0	35128	37216	13865	15214	
964	0	35100	37002	13762	15322	
965	0	35242	37129	13668	15408	
966	0	34994	37240	13584	15625	
967	0	34924	37170	13475	15778	
968	0	34816	37290	13455	15864	
969	0	35104	37276	13444	16086	
970	0	34916	37368	13372	16232	
971	0	35305	37160	13364	16376	
972	0	35228	37306	13401	16592	
973	0	35352	36872	13406	16760	
974	0	35214	37142	13473	16904	
975	0	34512	37184	13524	17132	
976	0	34772	37376	13532	17270	
977	0	35048	37220	13642	17469	
978	0	35244	37188	13716	17672	
979	0	35421	37016	13771	17826	
980	0	34969	37136	13890	18004	
981	0	35556	37064	13963	18224	
982	0	35320	37056	14130	18405	
983	0	35494	36912	14164	18585	
984	0	35453	36840	14322	18786	
985	0	35444	36932	14418	18960	
986	0	35448	36849	14580	19160	
987	0	35512	36856	14780	19452	
988	0	35488	36952	14902	19640	
989	0	35354	36904	15065	19922	
990	0	35228	37088	15168	20075	
991	0	35372	37112	15360	20377	
992	0	35168	37148	15468	20628	
993	0	35432	37352	15667	20843	
994	0	35484	37368	15824	21137	
995	0	35464	37401	15964	21394	
996	0	35440	37332	16168	21586	
997	0	35313	37316	16300	21918	
998	0	35428	37676	16498	22092	
999	0	35776	38064	16665	22430	
1000	0	36128	38632	16849	22642	
1001	0	36284	38944	16996	22910	
1002	0	36448	39420	17145	23188	
1003	0	36492	39592	17341	23381	
1004	0	35452	39900	17565	23682	
1005	0	35120	40568	17760	23920	
1006	0	35660	41480	17944	24180	
1007	0	35688	42312	18104	24392	
1008	0	36252	43012	18322	24652	
1009	0	35780	43940	18528	24924	
1010	0	33651	44961	18704	25096	
1011	0	32784	43572	18882	25310	
1012	0	33354	42757	19124	25518	
1013	0	33680	42080	19361	25748	
1014	0	36796	42236	19552	25978	
1015	0	38968	39692	19769	26216	
1016	0	37980	40177	20068	26408	
1017	0	35292	38548	20274	26664	
1018	0	31144	36872	20584	26932	
1019	0	28777	35184	20864	27158	
1020	0	31380	33776	21113	27406	
1021	0	34785	34525	21374	27620	
1022	0	34016	34198	21645	27828	
1023	0	33612	36308	21888	28102	
1024	0	37952	32592	22236	28356	
1025	0	36516	31828	22456	28552	
1026	0	34884	33227	22756	28808	
1027	0	33156	33584	23028	29028	
1028	0	32308	34230	23340	29228	
1029	0	32409	34148	23652	29459	
1030	0	31544	34004	23908	29648	
1031	0	31196	34120	24179	29849	
1032	0	31538	34056	24428	30061	
1033	0	31824	34306	24684	30252	
1034	0	32396	34548	24973	30386	
1035	0	32846	34384	25192	30556	
1036	0	33116	34396	25468	30741	
1037	0	33268	34680	25704	30888	
1038	0	33276	35044	25956	31056	
1039	0	33324	35312	26244	31196	
1040	0	33368	35784	26489	31344	
1041	0	33482	36204	26730	31516	
1042	0	33596	36650	26926	31692	
1043	0	33688	37168	27204	31824	
1044	0	33753	37526	27434	31976	
1045	0	33818	38081	27681	32164	
1046	0	33950	38604	27908	32321	
1047	0	34401	39132	28109	32424	
1048	0	34784	39696	28360	32561	
1049	0	35716	40208	28541	32792	
1050	0	36857	40672	28812	32889	
1051	0	38292	40900	29042	33020	
1052	0	39836	41296	29186	33168	
1053	0	40864	41576	29472	33376	
1054	0	41576	41224	29605	33436	
1055	0	43448	40960	29862	33596	
1056	0	45592	40240	30092	33736	
1057	0	46893	38708	30288	33865	
1058	0	49792	36669	30468	34096	
1059	0	48812	39065	30624	34184	
1060	0	53988	30010	30832	34304	
1061	0	31920	45256	30957	34448	
1062	0	20356	47192	31121	34440	
1063	0	25360	38144	31322	34560	
1064	0	55116	47268	31408	34710	
1065	0	40545	28482	31644	34813	
1066	0	27552	48868	31712	34820	
1067	0	40096	32496	31888	34952	
1068	0	36944	35584	32040	35028	
1069	0	32100	38896	32164	35048	
1070	0	35488	36029	32306	35132	
1071	0	33560	38524	32398	35182	
1072	0	34337	37324	32480	35345	
1073	0	34333	37402	32589	35312	
1074	0	34938	37180	32690	35396	
1075	0	34696	37124	32788	35472	
1076	0	34589	37338	32888	35512	
1077	0	34608	37278	33008	35650	
1078	0	34753	37110	33052	35737	
1079	0	34616	37280	33132	35713	
1080	0	34666	37316	33208	35752	
1081	0	34772	37232	33281	35912	
1082	0	34752	37336	33376	35956	
1083	0	34472	37409	33432	36004	
1084	0	31411	36590	33461	36088	
1085	0	34814	37418	33512	36109	
1086	0	33736	37560	33564	36108	
1087	0	34016	37496	33626	36153	
1088	0	35248	37120	33652	36048	
1089	0	34948	37296	33625	36156	
1090	0	34960	37120	33664	36112	
1091	0	35704	36968	33616	35988	
1092	0	34888	37568	33580	35924	
1093	0	35064	37200	33580	35898	
1094	0	35048	37336	33529	35794	
1095	0	35120	37320	33452	35712	
1096	0	35426	36888	33362	35624	
1097	0	35048	37276	33278	35564	
1098	0	35180	37068	33165	35466	
1099	0	35322	37138	33048	35328	
1100	0	35424	36900	32905	35109	
1101	0	35292	36988	32769	34970	
1102	0	35440	36880	32572	34817	
1103	0	35456	36956	32409	34704	
1104	0	35513	36852	32208	34544	
1105	0	35612	37108	32025	34324	
1106	0	35444	37044	31776	34256	
1107	0	35504	37096	31536	33960	
1108	0	35485	37248	31292	33805	
1109	0	35340	37328	31028	33700	
1110	0	35264	37464	30756	33552	
1111	0	35198	37576	30480	33270	
1112	0	35248	37632	30184	33133	
1113	0	35352	37752	29894	32993	
1114	0	35232	37608	29593	32768	
1115	0	35468	37624	29248	32637	
1116	0	35844	37924	28954	32412	
1117	0	36213	38252	28641	32300	
1118	0	36396	38776	28272	32164	
1119	0	35920	39444	27933	31938	
1120	0	35953	40148	27680	31786	
1121	0	35768	40492	27312	31660	
1122	0	35500	40912	26992	31506	
1123	0	34920	41496	26652	31325	
1124	0	34936	42716	26300	31216	
1125	0	34698	43720	25996	31024	
1126	0	33656	45224	25678	30882	
1127	0	32592	45576	25286	30764	
1128	0	32420	44256	25026	30646	
1129	0	34228	43132	24716	30481	
1130	0	35988	43024	24374	30356	
1131	0	38360	40814	24102	30264	
1132	0	39316	40360	23736	30164	
1133	0	36700	39728	23460	30070	
1134	0	31504	37850	23098	29942	
1135	0	26936	36840	22889	29864	
1136	0	28716	34048	22604	29804	
1137	0	35352	33981	22264	29696	
1138	0	36174	34280	22002	29624	
1139	0	34104	34816	21780	29568	
1140	0	34493	34369	21534	29500	
1141	0	37152	33688	21312	29440	
1142	0	34937	30346	21056	29368	
1143	0	33988	33294	20852	29280	
1144	0	33041	33554	20632	29180	
1145	0	32432	33470	20430	29076	
1146	0	32280	33236	20160	28994	
1147	0	32048	33626	20025	28892	
1148	0	31856	33942	19858	28758	
1149	0	31736	33932	19640	28648	
1150	0	32077	33949	19509	28513	
1151	0	32324	34113	19376	28362	
1152	0	32628	34296	19245	28244	
1153	0	32601	34628	19089	28100	
1154	0	32592	35122	18994	27942	
1155	0	32717	35464	18885	27778	
1156	0	32788	35874	18716	27588	
1157	0	32888	36437	18674	27424	
1158	0	33248	36746	18618	27252	
1159	0	33324	37296	18466	27088	
1160	0	33404	38216	18379	26864	
1161	0	34020	38756	18352	26656	
1162	0	34152	39304	18330	26456	
1163	0	34624	39920	18240	26282	
1164	0	35448	40553	18156	26025	
1165	0	36528	41120	18124	25865	
1166	0	37960	41564	18085	25580	
1167	0	39376	42244	18080	25424	
1168	0	40804	42784	18046	25249	
1169	0	42188	42772	17991	25018	
1170	0	44036	42076	17977	24888	
1171	0	45764	40721	17930	24644	
1172	0	47656	38568	17884	24416	
1173	0	50784	35444	17826	24308	
1174	0	43664	44728	17819	24138	
1175	0	55448	28846	17769	23956	
1176	0	35940	48640	17737	23784	
1177	0	13762	47532	17718	23620	
1178	0	29800	37716	17706	23449	
1179	0	55450	34272	17731	23237	
1180	0	40656	26298	17656	23125	
1181	0	28954	48233	17670	22968	
1182	0	39256	33184	17609	22837	
1183	0	35704	36636	17630	22712	
1184	0	33242	37768	17594	22568	
1185	0	35050	36772	17608	22476	
1186	0	34004	38056	17592	22378	
1187	0	34586	36996	17584	22281	
1188	0	34329	37656	17603	22204	
1189	0	34676	37148	17609	22179	
1190	0	34764	37025	17620	22033	
1191	0	34612	37230	17630	22018	
1192	0	34684	37312	17641	22011	
1193	0	34428	37408	17668	22065	
1194	0	34520	37232	17718	22042	
1195	0	34676	37248	17733	22116	
1196	0	34674	37340	17807	22176	
1197	0	34581	37417	17844	22216	
1198	0	34732	37322	17956	22330	
1199	0	34637	37434	18040	22370	
1200	0	34676	37436	18106	22484	
1201	0	34657	37484	18217	22556	
1202	0	34648	37440	18324	22701	
1203	0	34792	37285	18448	22868	
1204	0	34944	37244	18520	22940	
1205	0	34924	37264	18686	23029	
1206	0	34905	37312	18849	23224	
1207	0	34960	37292	19000	23344	
1208	0	34954	37314	19161	23472	
1209	0	35066	37408	19348	23632	
1210	0	35082	37344	19458	23715	
1211	0	35000	37396	19618	23858	
1212	0	35056	37370	19900	24018	
1213	0	35560	36976	20076	24044	
1214	0	35336	37176	20276	24254	
1215	0	34992	36794	20482	24388	
1216	0	35613	37077	20734	24434	
1217	0	35804	36600	20948	24640	
1218	0	35096	36896	21140	24730	
1219	0	35408	36892	21422	24925	
1220	0	35136	37260	21676	25045	
1221	0	35140	37224	21885	25176	
1222	0	35392	37112	22171	25312	
1223	0	35360	36960	22422	25457	
1224	0	35082	37124	22708	25608	
1225	0	35204	37110	22972	25756	
1226	0	35444	37160	23233	25944	
1227	0	35300	37368	23500	26091	
1228	0	35200	37612	23822	26256	
1229	0	35300	37664	24116	26420	
1230	0	35472	37680	24328	26594	
1231	0	35233	37581	24696	26765	
1232	0	35216	37656	24962	26930	
1233	0	35320	38000	25281	27088	
1234	0	35700	38497	25576	27265	
1235	0	35857	39001	25834	27452	
1236	0	35780	39416	26118	27604	
1237	0	35849	40176	26452	27800	
1238	0	35537	40908	26740	27952	
1239	0	34937	40984	27024	28140	
1240	0	34328	41772	27300	28282	
1241	0	33571	42920	27564	28472	
1242	0	33496	45124	27896	28656	
1243	0	32392	46400	28101	28850	
1244	0	31848	45688	28460	28956	
1245	0	33320	44544	28712	29117	
1246	0	34898	43532	29024	29282	
1247	0	37880	42244	29332	29514	
1248	0	40896	41204	29634	29656	
1249	0	37956	40786	29932	29832	
1250	0	34624	39560	30252	29944	
1251	0	29266	37696	30540	30122	
1252	0	25288	36096	30828	30342	
1253	0	31384	32888	31120	30473	
1254	0	35000	34256	31434	30630	
1255	0	36388	34684	31742	30786	
1256	0	34016	34736	32052	30970	
1257	0	34232	33540	32377	31176	
1258	0	35362	34912	32728	31276	
1259	0	34434	30076	33052	31476	
1260	0	34424	32360	33372	31561	
1261	0	32832	33445	33762	31757	
1262	0	32156	33744	34060	31848	
1263	0	32464	33356	34346	31952	
1264	0	32372	33521	34656	32089	
1265	0	32136	34112	34998	32184	
1266	0	31905	34225	35434	32291	
1267	0	32282	34424	35660	32412	
1268	0	32836	34428	36064	32516	
1269	0	32968	34372	36344	32612	
1270	0	33189	34528	36656	32676	
1271	0	33340	34709	36988	32772	
1272	0	33524	35057	37320	32844	
1273	0	33584	35501	37652	32976	
1274	0	33658	36024	38080	33036	
1275	0	33712	36492	38340	33144	
1276	0	33746	36932	38624	33216	
1277	0	33840	37632	39024	33314	
1278	0	34042	38193	39244	33416	
1279	0	34000	38876	39660	33520	
1280	0	34388	39594	39834	33617	
1281	0	35140	40061	40124	33732	
1282	0	36152	40601	40397	33824	
1283	0	37260	40905	40716	33945	
1284	0	38405	40997	40916	34057	
1285	0	39728	41060	41160	34176	
1286	0	40744	41242	41449	34265	
1287	0	41930	41129	41636	34406	
1288	0	43644	40672	41844	34524	
1289	0	44978	39658	42044	34617	
1290	0	46372	38576	42352	34756	
1291	0	48953	37144	42528	34860	
1292	0	54200	31936	42716	34980	
1293	0	44012	37632	42852	35114	
1294	0	36212	45272	42896	35232	
1295	0	15219	47244	42992	35312	
1296	0	31789	35528	43240	35464	
1297	0	55464	37365	43268	35568	
1298	0	33276	27434	43424	35644	
1299	0	29165	43901	43428	35760	
1300	0	40980	35724	43540	35834	
1301	0	36800	35408	43632	35956	
1302	0	31971	39272	43713	35996	
1303	0	34540	36440	43785	36108	
1304	0	34188	37378	43792	36193	
1305	0	33560	37736	43824	36264	
1306	0	33788	37440	43872	36308	
1307	0	34320	37424	43952	36372	
1308	0	34552	37320	43952	36456	
1309	0	34329	37298	44072	36524	
1310	0	34465	37336	44096	36552	
1311	0	34234	37432	44069	36626	
1312	0	34316	37322	44172	36684	
1313	0	34360	37350	44156	36716	
1314	0	34488	37316	44208	36740	
1315	0	34464	37289	44282	36784	
1316	0	34596	37408	44268	36796	
1317	0	34620	37356	44348	36824	
1318	0	34504	37464	44362	36800	
1319	0	34597	37373	44424	36792	
1320	0	34232	37600	44396	36794	
1321	0	34702	37336	44428	36752	
1322	0	34636	37376	44440	36690	
1323	0	34928	37256	44468	36636	
1324	0	34945	37524	44497	36548	
1325	0	34730	37472	44576	36456	
1326	0	34116	37568	44568	36296	
1327	0	34329	37534	44560	36152	
1328	0	34444	37401	44504	36048	
1329	0	35050	37232	44484	35868	
1330	0	34802	37314	44476	35677	
1331	0	34232	37616	44440	35544	
1332	0	35296	37408	44464	35296	
1333	0	34944	37046	44384	35124	
1334	0	35034	37264	44312	34884	
1335	0	34884	37188	44304	34632	
1336	0	34880	37180	44181	34473	
1337	0	34976	37116	44108	34164	
1338	0	35092	36968	44068	34025	
1339	0	35224	37092	43937	33760	
1340	0	35264	37164	43840	33528	
1341	0	35261	37344	43800	33208	
1342	0	35272	37444	43596	33014	
1343	0	35140	37600	43500	32732	
1344	0	35136	37716	43324	32518	
1345	0	35140	37780	43178	32273	
1346	0	35326	37820	43026	32072	
1347	0	35236	37696	42880	31872	
1348	0	35188	37832	42696	31608	
1349	0	35360	38212	42578	31344	
1350	0	35736	38864	42364	31117	
1351	0	35977	39332	42180	30896	
1352	0	35696	39904	42040	30725	
1353	0	35522	40272	41912	30448	
1354	0	35489	40696	41632	30256	
1355	0	34904	40949	41472	30064	
1356	0	34392	41680	41212	29806	
1357	0	33897	42580	41016	29609	
1358	0	33540	44072	40820	29392	
1359	0	31752	46996	40588	29165	
1360	0	30732	46642	40356	28968	
1361	0	32188	44410	40176	28824	
1362	0	36098	43602	39928	28585	
1363	0	38444	42641	39648	28420	
1364	0	39633	41616	39396	28203	
1365	0	37076	40964	39176	28033	
1366	0	34272	39696	38904	27854	
1367	0	28609	37977	38688	27666	
1368	0	25856	35468	38396	27502	
1369	0	32676	32562	38112	27404	
1370	0	37097	33500	37892	27225	
1371	0	36928	33602	37696	27082	
1372	0	34044	34428	37352	26977	
1373	0	36253	34830	37089	26856	
1374	0	34404	28504	36764	26704	
1375	0	35768	32056	36460	26556	
1376	0	32264	32636	36160	26484	
1377	0	32020	33301	35868	26336	
1378	0	31776	33465	35601	26273	
1379	0	31212	33628	35332	26146	
1380	0	31004	33980	35041	26052	
1381	0	31216	34336	34732	25916	
1382	0	31489	34553	34424	25803	
1383	0	31792	34588	34085	25712	
1384	0	32324	34565	33728	25589	
1385	0	32816	34480	33392	25484	
1386	0	33076	34812	33101	25381	
1387	0	33410	34876	32832	25288	
1388	0	33568	35492	32497	25192	
1389	0	33528	36028	32160	25086	
1390	0	33420	36764	31856	25000	
1391	0	33620	37380	31554	24898	
1392	0	33796	37640	31258	24820	
1393	0	33940	38280	30968	24733	
1394	0	34214	38884	30660	24668	
1395	0	34604	39201	30365	24606	
1396	0	35116	39384	30105	24545	
1397	0	35916	39648	29836	24498	
1398	0	36952	39988	29505	24460	
1399	0	38196	40528	29269	24424	
1400	0	39512	40953	28944	24400	
1401	0	40832	40912	28752	24392	
1402	0	42336	40808	28488	24384	
1403	0	43544	40265	28201	24400	
1404	0	45120	39500	27968	24402	
1405	0	45892	38464	27720	24430	
1406	0	46236	37340	27484	24466	
1407	0	46236	35976	27212	24507	
1408	0	39960	42473	26970	24588	
1409	0	50992	30996	26800	24616	
1410	0	30124	47476	26500	24676	
1411	0	19732	49208	26224	24756	
1412	0	32970	36624	26008	24868	
1413	0	48957	25415	25892	24912	
1414	0	37825	46310	25576	25000	
1415	0	32640	36960	25348	25154	
1416	0	36092	37680	25210	25228	
1417	0	34104	37248	24972	25373	
1418	0	33864	37267	24768	25504	
1419	0	34384	36628	24597	25570	
1420	0	33514	37740	24444	25724	
1421	0	33835	37560	24244	25877	
1422	0	33882	37680	24050	25957	
1423	0	34468	37304	23941	26116	
1424	0	34424	37280	23812	26318	
1425	0	34396	37288	23682	26502	
1426	0	34376	37308	23564	26636	
1427	0	34240	37394	23426	26852	
1428	0	34376	37354	23284	27000	
1429	0	34284	37528	23182	27198	
1430	0	34356	37440	23139	27414	
1431	0	34317	37468	23104	27624	
1432	0	34024	37508	23098	27825	
1433	0	34056	37656	23008	28040	
1434	0	34888	37308	22970	28276	
1435	0	34292	37568	23029	28520	
1436	0	35148	37188	23032	28736	
1437	0	33973	37536	23069	28944	
1438	0	35085	37136	23114	29181	
1439	0	35193	37236	23173	29312	
1440	0	34578	37608	23201	29522	
1441	0	35056	37096	23280	29728	
1442	0	35686	36961	23392	29896	
1443	0	34496	37524	23442	30072	
1444	0	34580	37420	23576	30252	
1445	0	34872	37432	23712	30396	
1446	0	35272	37001	23866	30588	
1447	0	35174	37060	23988	30728	
1448	0	35150	37056	24160	30876	
1449	0	35225	36961	24338	30970	
1450	0	35164	36836	24512	31104	
1451	0	35144	36914	24613	31256	
1452	0	35301	36992	24801	31380	
1453	0	35278	36996	25025	31452	
1454	0	35204	37076	25233	31568	
1455	0	35268	37162	25360	31648	
1456	0	35317	37324	25628	31796	
1457	0	35340	37336	25821	31856	
1458	0	35354	37432	26032	31996	
1459	0	35328	37464	26236	32069	
1460	0	35304	37493	26449	32146	
1461	0	35224	37504	26656	32268	
1462	0	35308	37716	26872	32448	
1463	0	35404	37660	27032	32505	
1464	0	35352	37616	27285	32612	
1465	0	35364	37952	27516	32745	
1466	0	35796	38244	27696	32884	
1467	0	35956	38936	27944	32988	
1468	0	35920	39664	28161	33121	
1469	0	36148	39721	28346	33304	
1470	0	35849	40412	28579	33413	
1471	0	35713	40728	28728	33568	
1472	0	35488	41164	28980	33692	
1473	0	35204	41880	29136	33852	
1474	0	35133	43148	29338	34000	
1475	0	35112	43584	29612	34216	
1476	0	35594	44844	29800	34392	
1477	0	33053	45860	30008	34497	
1478	0	32952	44776	30218	34728	
1479	0	33612	43560	30396	34912	
1480	0	35112	42312	30692	35024	
1481	0	35244	41496	30881	35220	
1482	0	38057	40036	31132	35397	
1483	0	36034	39957	31333	35648	
1484	0	33052	37840	31552	35848	
1485	0	29664	35656	31810	36000	
1486	0	30548	33536	32009	36200	
1487	0	34584	32656	32242	36417	
1488	0	34425	35672	32465	36696	
1489	0	34932	34781	32765	36924	
1490	0	37156	29945	32981	37061	
1491	0	35876	31850	33218	37314	
1492	0	32773	33081	33469	37524	
1493	0	31288	34208	33706	37712	
1494	0	31020	34184	33968	38000	
1495	0	31286	33760	34225	38220	
1496	0	30852	33976	34496	38320	
1497	0	31152	34232	34753	38540	
1498	0	31624	34272	35052	38752	
1499	0	32370	34312	35344	38968	
1500	0	33068	34069	35612	39264	
1501	0	33618	34200	35860	39360	
1502	0	33720	34244	36149	39572	
1503	0	33664	34720	36344	39800	
1504	0	33540	35058	36664	39978	
1505	0	33410	35580	36932	40020	
1506	0	33552	35968	37065	40272	
1507	0	33509	36424	37368	40400	
1508	0	33628	36896	37632	40564	
1509	0	33888	37269	37792	40712	
1510	0	33956	37720	38017	40849	
1511	0	34236	38290	38256	41108	
1512	0	34636	38736	38484	41188	
1513	0	34961	39202	38772	41436	
1514	0	35618	39700	38897	41602	
1515	0	36396	40044	39098	41792	
1516	0	37517	40418	39288	41825	
1517	0	38861	41022	39492	41978	
1518	0	39778	40896	39657	42171	
1519	0	40820	40932	39932	42336	
1520	0	42168	40624	40028	42400	
1521	0	43532	39712	40184	42592	
1522	0	44468	38888	40466	42604	
1523	0	45108	37960	40504	42835	
1524	0	45962	36856	40792	42868	
1525	0	48180	35386	40788	43028	
1526	0	39325	44372	40896	43018	
1527	0	49180	30610	41117	43121	
1528	0	25952	45378	41148	43188	
1529	0	17748	47076	41284	43297	
1530	0	33984	37836	41378	43321	
1531	0	55456	41648	41512	43460	
1532	0	47556	32737	41580	43453	
1533	0	27300	46770	41656	43592	
1534	0	40858	32992	41780	43572	
1535	0	35512	37248	41844	43620	
1536	0	32308	38732	41948	43728	
1537	0	35152	36126	42016	43736	
1538	0	33940	37848	42192	43804	
1539	0	34464	37234	42144	43921	
1540	0	33961	37492	42322	43972	
1541	0	34296	37356	42332	44056	
1542	0	34564	37224	42361	44104	
1543	0	34226	37516	42428	44220	
1544	0	34404	37284	42552	44248	
1545	0	34232	37569	42572	44336	
1546	0	34076	37597	42624	44440	
1547	0	34344	37380	42760	44528	
1548	0	34204	37604	42872	44633	
1549	0	34268	37632	42828	44780	
1550	0	34446	37404	42898	44809	
1551	0	32656	37316	42960	44960	
1552	0	34104	37730	43028	44992	
1553	0	35174	37376	43160	45048	
1554	0	34428	37524	43208	45136	
1555	0	35008	37141	43152	45202	
1556	0	34220	37704	43272	45228	
1557	0	34560	37376	43257	45268	
1558	0	35412	37068	43242	45312	
1559	0	34359	37341	43272	45296	
1560	0	35244	37340	43269	45312	
1561	0	35116	37400	43296	45248	
1562	0	35068	37284	43308	45216	
1563	0	35248	36976	43265	45220	
1564	0	35174	37130	43246	45164	
1565	0	35172	36964	43256	45064	
1566	0	35310	36944	43160	44936	
1567	0	35323	36940	43140	44801	
1568	0	35272	36861	43084	44712	
1569	0	35300	36938	43112	44588	
1570	0	35280	36929	42952	44393	
1571	0	35384	36912	42872	44265	
1572	0	35432	36952	42788	44056	
1573	0	35468	36904	42704	43912	
1574	0	35340	36960	42588	43780	
1575	0	35469	36976	42560	43536	
1576	0	35492	37160	42474	43316	
1577	0	35328	37364	42336	43217	
1578	0	35429	37416	42112	42956	
1579	0	35504	37546	41912	42696	
1580	0	35380	37548	41880	42612	
1581	0	35397	37676	41568	42356	
1582	0	35620	37640	41532	42036	
1583	0	35664	37596	41352	41960	
1584	0	35592	37654	41018	41616	
1585	0	35600	37992	40800	41444	
1586	0	35821	38444	40582	41248	
1587	0	35848	38906	40393	40952	
1588	0	35785	39584	40152	40729	
1589	0	35952	39737	39928	40568	
1590	0	35520	40057	39760	40328	
1591	0	35204	40320	39408	40164	
1592	0	34872	41192	39160	39956	
1593	0	35124	42144	38908	39610	
1594	0	35193	43256	38684	39404	
1595	0	34874	44088	38386	39280	
1596	0	33480	44500	38140	39008	
1597	0	34124	43488	37872	38770	
1598	0	34880	42816	37584	38506	
1599	0	34580	42432	37312	38297	
1600	0	35808	41136	37037	38105	
1601	0	37416	40304	36800	37980	
1602	0	36164	39608	36554	37632	
1603	0	33104	37221	36228	37426	
1604	0	30461	35520	35968	37226	
1605	0	30460	34784	35777	37064	
1606	0	33800	34156	35440	36810	
1607	0	33620	35688	35168	36610	
1608	0	33274	36034	34882	36552	
1609	0	36114	32257	34634	36204	
1610	0	34328	32586	34376	36128	
1611	0	33472	33904	34104	35816	
1612	0	31928	34408	33840	35696	
1613	0	31744	34193	33592	35552	
1614	0	32000	33808	33340	35218	
1615	0	31777	34116	33100	35016	
1616	0	31844	34352	32796	34817	
1617	0	32160	34456	32540	34637	
1618	0	32504	34708	32300	34396	
1619	0	32582	35101	32046	34232	
1620	0	32722	35421	31784	33936	
1621	0	33028	35696	31520	33760	
1622	0	33176	35904	31258	33462	
1623	0	33240	36168	31008	33213	
1624	0	33481	36416	30764	32952	
1625	0	33776	36666	30505	32714	
1626	0	33972	37202	30256	32444	
1627	0	34144	37672	30004	32188	
1628	0	34349	38161	29780	31928	
1629	0	34604	38576	29542	31694	
1630	0	34976	39040	29292	31403	
1631	0	35577	39512	29042	31097	
1632	0	36106	39888	28832	30904	
1633	0	36960	40238	28539	30541	
1634	0	37776	40472	28353	30284	
1635	0	38608	40724	28088	30060	
1636	0	39608	41000	27873	29724	
1637	0	40816	41096	27692	29445	
1638	0	41445	40530	27492	29188	
1639	0	42872	39688	27312	28924	
1640	0	43384	38736	27092	28656	
1641	0	43816	37693	26900	28413	
1642	0	43601	36544	26736	28168	
1643	0	44352	35232	26537	27980	
1644	0	45516	34665	26378	27682	
1645	0	45000	34884	26164	27420	
1646	0	35976	44928	25884	27194	
1647	0	46804	32036	25802	26972	
1648	0	18550	49600	25554	26760	
1649	0	16928	42216	25425	26532	
1650	0	39620	35822	25286	26392	
1651	0	54468	48920	25100	26182	
1652	0	35944	31456	25013	25995	
1653	0	28212	46040	24808	25744	
1654	0	40856	31710	24728	25585	
1655	0	35093	37572	24540	25416	
1656	0	32900	37920	24386	25257	
1657	0	34636	37184	24282	25114	
1658	0	33614	37998	24188	24974	
1659	0	34260	37300	24117	24862	
1660	0	34457	37624	23992	24748	
1661	0	34640	37137	23928	24657	
1662	0	34560	37424	23828	24637	
1663	0	34508	37361	23760	24578	
1664	0	34676	37098	23709	24544	
1665	0	34757	37104	23646	24481	
1666	0	34512	37338	23592	24478	
1667	0	34608	37384	23497	24509	
1668	0	34628	37378	23556	24564	
1669	0	34616	37445	23472	24582	
1670	0	34472	37476	23512	24644	
1671	0	34476	37604	23520	24709	
1672	0	34460	37736	23464	24824	
1673	0	34212	37392	23544	24950	
1674	0	34404	37544	23529	25056	
1675	0	35812	37040	23526	25140	
1676	0	34708	37468	23630	25277	
1677	0	35146	37268	23713	25401	
1678	0	35336	37172	23760	25568	
1679	0	34748	37565	23818	25716	
1680	0	34808	37344	23924	25844	
1681	0	34956	37448	23958	26002	
1682	0	34964	37320	24146	26162	
1683	0	35072	37216	24242	26333	
1684	0	34944	37224	24363	26484	
1685	0	35090	37128	24430	26661	
1686	0	35148	37028	24642	26824	
1687	0	35108	37080	24785	27008	
1688	0	35156	37025	24930	27230	
1689	0	35170	37024	25080	27377	
1690	0	35128	37120	25184	27552	
1691	0	35264	37056	25406	27734	
1692	0	35224	37120	25577	27932	
1693	0	35152	37076	25694	28140	
1694	0	35324	37072	25944	28332	
1695	0	35262	37170	26112	28544	
1696	0	35280	37280	26304	28811	
1697	0	35164	37404	26498	29052	
1698	0	35186	37410	26680	29196	
1699	0	35088	37608	26837	29420	
1700	0	35194	37504	27002	29728	
1701	0	35212	37696	27203	29942	
1702	0	35292	37436	27444	30132	
1703	0	35272	37600	27653	30376	
1704	0	35396	37680	27858	30592	
1705	0	35592	38136	28046	30885	
1706	0	35696	38604	28240	31076	
1707	0	35744	39168	28449	31380	
1708	0	35504	39908	28682	31648	
1709	0	35460	40408	28852	31825	
1710	0	34980	40904	29065	32117	
1711	0	34437	41404	29298	32317	
1712	0	33880	42604	29442	32568	
1713	0	33346	43716	29656	32825	
1714	0	31840	45080	29952	33056	
1715	0	32416	44928	30140	33312	
1716	0	32702	43824	30408	33570	
1717	0	36800	42632	30582	33881	
1718	0	36088	42432	30833	34094	
1719	0	39864	40528	31136	34334	
1720	0	38504	40448	31362	34636	
1721	0	35134	39124	31596	34872	
1722	0	31308	37732	31852	35125	
1723	0	27888	36192	32144	35417	
1724	0	29180	35260	32410	35685	
1725	0	35568	34082	32669	35880	
1726	0	36312	34146	32932	36204	
1727	0	35508	34924	33225	36408	
1728	0	35340	34538	33593	36656	
1729	0	34412	34956	33818	36900	
1730	0	34992	31874	34189	37130	
1731	0	34340	33156	34500	37396	
1732	0	32712	33832	34820	37716	
1733	0	32362	34378	35084	37796	
1734	0	32064	34196	35400	38036	
1735	0	31888	34204	35708	38240	
1736	0	31775	34360	36080	38452	
1737	0	32000	34325	36336	38588	
1738	0	32310	34508	36680	38776	
1739	0	32616	34560	36940	38988	
1740	0	33176	34537	37296	39084	
1741	0	33212	34640	37564	39348	
1742	0	33292	34952	37808	39392	
1743	0	33412	35344	38100	39504	
1744	0	33618	35744	38416	39616	
1745	0	33760	36196	38706	39744	
1746	0	33941	36620	38940	39968	
1747	0	34073	37106	39196	39952	
1748	0	34216	37472	39466	40088	
1749	0	34464	37948	39792	40176	
1750	0	34746	38368	40084	40352	
1751	0	35112	38800	40256	40348	
1752	0	35656	39440	40516	40545	
1753	0	36476	39872	40882	40504	
1754	0	37644	40360	41148	40626	
1755	0	38890	40520	41313	40780	
1756	0	40252	40688	41544	40829	
1757	0	41378	40832	41802	40832	
1758	0	42424	40704	42096	40896	
1759	0	43872	40441	42250	41036	
1760	0	44729	39820	42489	41120	
1761	0	45200	38572	42832	41192	
1762	0	46848	36730	42952	41304	
1763	0	47312	39080	43208	41328	
1764	0	52136	31652	43360	41328	
1765	0	37477	43312	43540	41384	
1766	0	24804	46492	43784	41528	
1767	0	17634	42560	43924	41624	
1768	0	45426	33760	44128	41680	
1769	0	53696	43757	44268	41752	
1770	0	43360	43152	44412	41740	
1771	0	31128	40448	44624	41784	
1772	0	38336	34948	44704	41836	
1773	0	34816	37028	44888	41992	
1774	0	32756	37924	44960	41968	
1775	0	34456	36852	45088	42070	
1776	0	33586	37888	45152	42056	
1777	0	33801	37489	45236	42176	
1778	0	33960	37493	45332	42176	
1779	0	34152	37428	45464	42272	
1780	0	34016	37408	45548	42345	
1781	0	34080	37560	45568	42328	
1782	0	34056	37609	45648	42436	
1783	0	33702	37540	45785	42472	
1784	0	33836	37508	45764	42480	
1785	0	34336	37427	45872	42460	
1786	0	34382	37428	45956	42552	
1787	0	34272	37468	45948	42500	
1788	0	34036	37476	46016	42464	
1789	0	34522	37536	46016	42504	
1790	0	34538	37472	46112	42504	
1791	0	34504	37416	46064	42456	
1792	0	35489	37104	46061	42368	
1793	0	34340	37533	46076	42248	
1794	0	35424	36900	46084	42204	
1795	0	34537	37480	46109	42068	
1796	0	34918	37140	46052	41876	
1797	0	34800	37325	45996	41752	
1798	0	34696	37198	45889	41604	
1799	0	34852	37282	45884	41376	
1800	0	34872	37288	45824	41176	
1801	0	34880	37164	45688	40981	
1802	0	34936	37194	45560	40754	
1803	0	35016	36984	45458	40460	
1804	0	35068	36908	45385	40233	
1805	0	35124	36882	45184	40001	
1806	0	35160	36897	45048	39674	
1807	0	35124	36984	44860	39434	
1808	0	34925	37138	44720	39132	
1809	0	35072	37196	44556	38858	
1810	0	35195	37280	44337	38604	
1811	0	35232	37340	44076	38284	
1812	0	35208	37232	43840	38024	
1813	0	35394	37284	43617	37728	
1814	0	35192	37284	43449	37432	
1815	0	35229	37404	43096	37168	
1816	0	35284	37652	42866	36864	
1817	0	35128	37652	42576	36596	
1818	0	35100	37648	42380	36298	
1819	0	35224	37896	42020	36024	
1820	0	35288	37792	41696	35764	
1821	0	35272	37854	41366	35468	
1822	0	35544	37960	41056	35213	
1823	0	35856	38224	40819	34936	
1824	0	35822	38600	40545	34664	
1825	0	36105	38920	40096	34400	
1826	0	35868	39396	39792	34129	
1827	0	35501	39856	39528	33878	
1828	0	35416	40056	39168	33620	
1829	0	35140	40396	38844	33336	
1830	0	34940	40836	38432	33088	
1831	0	34955	41652	38098	32820	
1832	0	35200	42264	37821	32560	
1833	0	34680	43392	37444	32312	
1834	0	33193	43828	37128	32060	
1835	0	33508	43320	36805	31820	
1836	0	33866	43124	36484	31569	
1837	0	34899	42540	36153	31326	
1838	0	35612	42168	35828	31072	
1839	0	37186	41324	35484	30820	
1840	0	37057	40584	35164	30604	
1841	0	33832	38880	34837	30358	
1842	0	30955	36500	34560	30145	
1843	0	30072	35696	34204	29912	
1844	0	31976	33956	33940	29700	
1845	0	36288	34480	33532	29481	
1846	0	33328	37268	33194	29284	
1847	0	37040	33376	32882	29106	
1848	0	36264	31858	32541	28924	
1849	0	34360	33697	32244	28744	
1850	0	32172	34920	31904	28542	
1851	0	31744	34784	31512	28364	
1852	0	31650	34040	31152	28186	
1853	0	31288	34124	30804	28013	
1854	0	31512	34168	30452	27864	
1855	0	31708	34260	30080	27697	
1856	0	32452	33808	29708	27493	
1857	0	33088	33652	29328	27330	
1858	0	33384	33664	28944	27160	
1859	0	33480	33908	28569	27005	
1860	0	33510	34345	28188	26816	
1861	0	33319	34908	27804	26637	
1862	0	33164	35464	27420	26528	
1863	0	33040	36016	27034	26297	
1864	0	33024	36548	26674	26180	
1865	0	33216	36952	26312	26028	
1866	0	33368	37304	25900	25800	
1867	0	33324	37804	25600	25646	
1868	0	33584	38268	25229	25482	
1869	0	33881	38785	24889	25360	
1870	0	34172	39489	24572	25186	
1871	0	34612	40120	24252	25076	
1872	0	35472	40677	23881	24948	
1873	0	36288	41384	23581	24720	
1874	0	38056	41644	23301	24572	
1875	0	39105	41456	22962	24454	
1876	0	40832	41792	22676	24354	
1877	0	42268	41728	22464	24218	
1878	0	44033	40752	22124	24146	
1879	0	45644	39328	21864	24016	
1880	0	46392	38068	21640	23928	
1881	0	47436	36324	21380	23766	
1882	0	49064	34948	21198	23661	
1883	0	46740	34860	20964	23573	
1884	0	43196	37688	20637	23462	
1885	0	47408	33760	20482	23334	
1886	0	17369	47384	20240	23296	
1887	0	12343	44128	20022	23195	
1888	0	35300	34640	19821	23120	
1889	0	50328	38708	19638	23004	
1890	0	46704	33960	19470	22978	
1891	0	33562	45120	19233	22916	
1892	0	34900	36692	19040	22794	
1893	0	38840	34412	18916	22808	
1894	0	33240	38864	18689	22688	
1895	0	34596	36992	18536	22632	
1896	0	34072	37153	18382	22646	
1897	0	33517	38072	18238	22618	
1898	0	33908	37432	18110	22528	
1899	0	34072	37528	17960	22567	
1900	0	34244	37468	17812	22614	
1901	0	34084	37480	17707	22586	
1902	0	34080	37556	17612	22594	
1903	0	34136	37544	17480	22616	
1904	0	34308	37412	17396	22660	
1905	0	34241	37412	17300	22720	
1906	0	34344	37504	17167	22800	
1907	0	34393	37436	17058	22900	
1908	0	34290	37620	17051	22976	
1909	0	34162	37676	17003	23076	
1910	0	34422	37484	16950	23192	
1911	0	34301	37660	16908	23298	
1912	0	33740	37956	16844	23476	
1913	0	34536	37312	16848	23533	
1914	0	34344	37729	16808	23678	
1915	0	35642	37140	16843	23820	
1916	0	34648	37512	16836	23936	
1917	0	33694	37466	16796	24088	
1918	0	34772	37508	16830	24196	
1919	0	35036	37296	16952	24284	
1920	0	35124	37270	16960	24386	
1921	0	34900	37130	17052	24537	
1922	0	34780	37385	17089	24684	
1923	0	34956	37226	17216	24766	
1924	0	34952	37269	17268	24926	
1925	0	34548	37352	17399	25028	
1926	0	35064	37328	17492	25192	
1927	0	35084	37048	17584	25261	
1928	0	35036	37081	17768	25417	
1929	0	34976	37202	17900	25504	
1930	0	35156	37192	18100	25710	
1931	0	35036	37104	18243	25912	
1932	0	35146	37158	18426	26076	
1933	0	35096	37169	18550	26169	
1934	0	35129	37129	18781	26356	
1935	0	35020	37188	18947	26500	
1936	0	35000	37280	19125	26656	
1937	0	35088	37384	19259	26912	
1938	0	35129	37400	19489	27112	
1939	0	35116	37560	19652	27340	
1940	0	35085	37672	19889	27512	
1941	0	35205	37704	20072	27724	
1942	0	35344	37704	20232	27992	
1943	0	35277	37556	20424	28224	
1944	0	35289	37654	20700	28451	
1945	0	35372	37906	20848	28696	
1946	0	35700	38336	21044	28965	
1947	0	35716	38728	21236	29192	
1948	0	35548	39072	21480	29485	
1949	0	35300	39656	21600	29716	
1950	0	35008	40009	21850	29974	
1951	0	34560	40380	22056	30240	
1952	0	34264	40816	22240	30505	
1953	0	33704	41648	22456	30837	
1954	0	33105	42552	22648	31076	
1955	0	32372	43904	22828	31360	
1956	0	31872	45060	23065	31618	
1957	0	34182	43408	23272	31850	
1958	0	34548	43324	23489	32192	
1959	0	37192	43128	23688	32464	
1960	0	39490	42136	23910	32762	
1961	0	38856	40906	24137	33061	
1962	0	36058	40424	24314	33392	
1963	0	32664	39101	24602	33708	
1964	0	29112	37120	24760	34045	
1965	0	27024	35849	25080	34354	
1966	0	34586	33264	25328	34708	
1967	0	35350	34853	25516	34992	
1968	0	35440	34848	25765	35368	
1969	0	35016	35556	26040	35736	
1970	0	34600	33284	26314	36140	
1971	0	34856	35413	26552	36320	
1972	0	34552	31085	26853	36724	
1973	0	34468	32801	27100	37092	
1974	0	32586	33964	27378	37410	
1975	0	32082	34032	27648	37624	
1976	0	32853	33900	27924	37964	
1977	0	32098	33840	28193	38259	
1978	0	31956	33652	28480	38604	
1979	0	32174	33924	28760	38828	
1980	0	32277	34216	29037	39049	
1981	0	32446	34457	29340	39348	
1982	0	32690	34700	29600	39514	
1983	0	32677	34970	29908	39744	
1984	0	32832	35460	30176	39924	
1985	0	33241	35712	30466	40124	
1986	0	33450	36244	30776	40344	
1987	0	33468	36708	31052	40540	
1988	0	33704	37313	31360	40608	
1989	0	33724	37772	31636	40784	
1990	0	33776	38228	31940	40976	
1991	0	33922	38860	32237	41118	
1992	0	34212	39524	32541	41200	
1993	0	34442	39882	32836	41344	
1994	0	34968	40456	33129	41528	
1995	0	35920	41048	33433	41612	
1996	0	36930	41346	33720	41704	
1997	0	38144	41768	34033	41701	
1998	0	39388	42124	34336	41800	
1999	0	40336	42216	34632	41996	
2000	0	42016	41920	34916	41952	
2001	0	43312	41280	35220	42017	
2002	0	44625	39796	35496	42066	
2003	0	45938	37872	35796	42113	
2004	0	50932	35480	36072	42129	
2005	0	49352	35104	36468	42162	
2006	0	50820	35504	36660	42264	
2007	0	42944	40448	36956	42140	
2008	0	19434	45088	37248	42116	
2009	0	15076	38688	37508	42120	
2010	0	33828	36236	37792	42200	
2011	0	48592	40485	38089	42080	
2012	0	40416	31155	38320	42049	
2013	0	31042	44776	38588	42016	
2014	0	35716	35604	38830	42064	
2015	0	39820	34782	39149	41994	
2016	0	33384	38610	39408	41936	
2017	0	34384	37040	39596	41908	
2018	0	34032	37212	39844	41836	
2019	0	33764	37742	39996	41737	
2020	0	33916	37356	40208	41840	
2021	0	34117	37472	40448	41784	
2022	0	34432	37356	40737	41736	
2023	0	34380	37484	40932	41608	
2024	0	34080	37608	41024	41644	
2025	0	33988	37556	41244	41588	
2026	0	34020	37548	41408	41590	
2027	0	34256	37392	41720	41484	
2028	0	34264	37420	41778	41408	
2029	0	34284	37448	42024	41360	
2030	0	34379	37448	42224	41449	
2031	0	34336	37552	42265	41296	
2032	0	34316	37684	42442	41228	
2033	0	34201	37668	42604	41192	
2034	0	34356	37489	42700	41192	
2035	0	34547	37324	42824	41064	
2036	0	34664	37320	42944	41008	
2037	0	34540	37421	43028	40904	
2038	0	34616	37424	43122	40900	
2039	0	34500	37357	43196	40728	
2040	0	34948	37360	43265	40616	
2041	0	34310	37664	43304	40576	
2042	0	34392	37476	43397	40388	
2043	0	34868	37230	43413	40288	
2044	0	34861	37218	43448	40084	
2045	0	34924	37276	43432	39872	
2046	0	35304	37060	43384	39704	
2047	0	34672	36864	43348	39588	
2048	0	34884	37450	43344	39401	
2049	0	34984	37192	43292	39170	
2050	0	34776	37194	43256	39013	
2051	0	35012	37156	43272	38798	
2052	0	34949	37164	43113	38544	
2053	0	34944	37152	43092	38360	
2054	0	34884	37084	42908	38170	
2055	0	34908	37078	42908	37912	
2056	0	34896	37120	42794	37697	
2057	0	34976	37362	42684	37456	
2058	0	35008	37488	42521	37272	
2059	0	34893	37508	42364	37032	
2060	0	35097	37708	42304	36796	
2061	0	34984	37794	42064	36568	
2062	0	35024	37764	41988	36332	
2063	0	35172	37617	41696	36132	
2064	0	35061	37784	41604	35897	
2065	0	35140	37930	41345	35668	
2066	0	35386	38300	41188	35426	
2067	0	35576	39096	40976	35220	
2068	0	35784	39320	40892	34994	
2069	0	35832	39490	40584	34761	
2070	0	35529	39725	40476	34549	
2071	0	34928	40152	40221	34320	
2072	0	34798	41060	40040	34112	
2073	0	35114	41560	39740	33900	
2074	0	34784	42152	39496	33704	
2075	0	34368	43136	39332	33509	
2076	0	32976	44580	39076	33322	
2077	0	32336	43388	38788	33140	
2078	0	33244	42425	38568	32952	
2079	0	32961	42332	38344	32800	
2080	0	35977	42468	38084	32651	
2081	0	36124	41841	37772	32501	
2082	0	38297	40224	37484	32392	
2083	0	36480	39786	37228	32272	
2084	0	33832	38014	36921	32160	
2085	0	29104	36816	36624	32076	
2086	0	27788	35722	36356	32000	
2087	0	32509	33310	36122	31905	
2088	0	35361	34224	35728	31826	
2089	0	33516	36180	35428	31762	
2090	0	34884	33992	35156	31720	
2091	0	35562	33400	34778	31624	
2092	0	33956	33144	34482	31562	
2093	0	30296	34916	34152	31544	
2094	0	30501	34900	33796	31396	
2095	0	30813	34337	33472	31368	
2096	0	30681	34954	33168	31216	
2097	0	30912	34856	32848	31134	
2098	0	31620	34728	32577	30988	
2099	0	32072	34796	32196	30872	
2100	0	32692	34884	31901	30717	
2101	0	32992	35180	31656	30564	
2102	0	33148	35482	31340	30324	
2103	0	33100	36147	31056	30116	
2104	0	33145	36744	30784	29904	
2105	0	33068	37087	30525	29708	
2106	0	33308	37320	30264	29468	
2107	0	33214	38088	30021	29217	
2108	0	33229	38976	29774	28936	
2109	0	33654	39762	29484	28688	
2110	0	33952	40040	29284	28356	
2111	0	34476	40332	29064	28116	
2112	0	34854	40752	28770	27784	
2113	0	35484	41092	28602	27520	
2114	0	36556	41644	28330	27176	
2115	0	37972	42093	28149	26868	
2116	0	39528	42304	27944	26561	
2117	0	41012	41848	27686	26296	
2118	0	42500	41281	27464	25953	
2119	0	43776	40824	27341	25651	
2120	0	44844	39481	27144	25344	
2121	0	47096	37110	26944	25046	
2122	0	51556	34512	26752	24768	
2123	0	49472	35268	26524	24472	
2124	0	47276	36792	26344	24192	
2125	0	35608	48264	26109	23882	
2126	0	44589	31537	26000	23610	
2127	0	20280	45408	25728	23342	
2128	0	9957	43976	25545	23076	
2129	0	39328	35409	25426	22848	
2130	0	47132	40332	25228	22576	
2131	0	55200	47836	24944	22344	
2132	0	32560	37541	24868	22130	
2133	0	30482	41024	24706	21904	
2134	0	40800	32660	24530	21688	
2135	0	31896	40116	24322	21505	
2136	0	34444	36492	24236	21332	
2137	0	33864	37308	24056	21169	
2138	0	33162	37936	23938	21026	
2139	0	33792	37384	23720	20889	
2140	0	33860	37648	23640	20776	
2141	0	34072	37794	23468	20701	
2142	0	33836	37716	23384	20636	
2143	0	33848	37469	23286	20586	
2144	0	33844	37552	23184	20577	
2145	0	34017	37572	23040	20577	
2146	0	34060	37488	22973	20586	
2147	0	34009	37484	22904	20640	
2148	0	34192	37492	22848	20708	
2149	0	34144	37468	22768	20792	
2150	0	34049	37480	22728	20912	
2151	0	34236	37536	22688	21041	
2152	0	34480	37312	22662	21178	
2153	0	34416	37533	22576	21350	
2154	0	34040	37600	22629	21530	
2155	0	34776	37392	22620	21708	
2156	0	34368	37432	22628	21914	
2157	0	34952	37320	22603	22100	
2158	0	34216	37612	22616	22296	
2159	0	35556	37292	22672	22504	
2160	0	34694	37384	22725	22722	
2161	0	35164	37201	22779	22994	
2162	0	35025	37289	22878	23219	
2163	0	35040	37226	22892	23420	
2164	0	34276	37496	22961	23644	
2165	0	34680	37476	23088	23874	
2166	0	35324	37632	23210	24106	
2167	0	34896	37228	23290	24372	
2168	0	34874	37264	23408	24645	
2169	0	35108	37172	23537	24898	
2170	0	35053	37264	23592	25204	
2171	0	35076	37200	23808	25452	
2172	0	35060	37162	23902	25697	
2173	0	34984	37181	24064	25958	
2174	0	34896	37328	24201	26232	
2175	0	34969	37364	24353	26520	
2176	0	34972	37524	24521	26808	
2177	0	34941	37640	24694	27090	
2178	0	34948	37593	24824	27420	
2179	0	34922	37808	25000	27680	
2180	0	35024	37798	25188	27945	
2181	0	34900	37792	25341	28261	
2182	0	34977	37896	25512	28576	
2183	0	35137	38160	25668	28824	
2184	0	35578	38612	25832	29176	
2185	0	35748	39412	26024	29456	
2186	0	35534	40224	26130	29722	
2187	0	35389	40880	26320	30040	
2188	0	35217	41000	26506	30324	
2189	0	34284	41680	26696	30621	
2190	0	33792	42525	26844	30972	
2191	0	33828	43752	27018	31202	
2192	0	32464	45764	27206	31482	
2193	0	31018	46048	27421	31804	
2194	0	32896	43712	27613	32096	
2195	0	35944	42601	27764	32396	
2196	0	36321	44156	27924	32672	
2197	0	39161	41892	28212	33024	
2198	0	38880	41056	28401	33366	
2199	0	35954	40234	28645	33600	
2200	0	31184	38408	28816	33972	
2201	0	26496	36636	29064	34272	
2202	0	28868	34808	29304	34636	
2203	0	35620	34160	29522	34976	
2204	0	36848	33910	29772	35281	
2205	0	33696	35048	29992	35648	
2206	0	32976	36012	30245	35980	
2207	0	34752	29720	30488	36377	
2208	0	35420	32940	30720	36752	
2209	0	32484	33426	30970	36997	
2210	0	31560	34506	31232	37372	
2211	0	31621	33960	31522	37728	
2212	0	31452	33812	31812	38084	
2213	0	31236	34184	32036	38420	
2214	0	31464	34408	32293	38680	
2215	0	31816	34432	32568	38968	
2216	0	32240	34533	32844	39250	
2217	0	32690	34554	33172	39416	
2218	0	32826	34712	33428	39800	
2219	0	33170	34844	33684	39952	
2220	0	33259	35208	34024	40214	
2221	0	33208	35572	34268	40416	
2222	0	33312	36024	34620	40661	
2223	0	33308	36464	34881	40904	
2224	0	33546	36856	35208	40984	
2225	0	33822	37292	35430	41208	
2226	0	33974	37672	35744	41408	
2227	0	34272	38408	36052	41629	
2228	0	34432	38988	36372	41689	
2229	0	34992	39640	36740	41888	
2230	0	35820	40296	36994	42008	
2231	0	37132	40960	37308	42188	
2232	0	38576	41437	37628	42340	
2233	0	39996	41436	38020	42432	
2234	0	41200	41408	38352	42501	
2235	0	42396	41480	38588	42716	
2236	0	43980	40800	38984	42804	
2237	0	45352	40580	39246	42909	
2238	0	46144	38793	39568	42916	
2239	0	48548	36624	39908	43000	
2240	0	50732	33882	40196	43076	
2241	0	41928	42880	40456	43164	
2242	0	43064	40236	40764	43336	
2243	0	22614	45420	41096	43384	
2244	0	10368	41241	41344	43368	
2245	0	32270	35225	41748	43400	
2246	0	53274	37638	42068	43448	
2247	0	39916	29728	42256	43508	
2248	0	25288	46408	42488	43592	
2249	0	40520	32480	42780	43562	
2250	0	36466	36756	43064	43636	
2251	0	32384	38342	43336	43712	
2252	0	34344	37068	43604	43684	
2253	0	33401	38412	43852	43676	
2254	0	33320	37792	44104	43696	
2255	0	33916	37605	44417	43720	
2256	0	34149	37448	44600	43736	
2257	0	33756	37352	44836	43776	
2258	0	33666	37588	45072	43808	
2259	0	33918	37648	45312	43872	
2260	0	34000	37448	45576	43876	
2261	0	34540	37314	45776	43936	
2262	0	34556	37248	46073	43868	
2263	0	34168	37428	46228	43892	
2264	0	34528	37528	46500	43904	
2265	0	34516	37472	46744	43912	
2266	0	34504	37484	46872	43940	
2267	0	33850	37880	47136	43882	
2268	0	34686	37368	47300	43872	
2269	0	34900	37296	47456	43798	
2270	0	35080	37277	47637	43720	
2271	0	33512	37605	47856	43640	
2272	0	34988	37120	48000	43560	
2273	0	34588	37472	48112	43472	
2274	0	35164	37280	48280	43281	
2275	0	34720	37432	48368	43172	
2276	0	34860	37308	48480	42952	
2277	0	35120	37353	48584	42784	
2278	0	34936	37364	48736	42560	
2279	0	35049	37216	48804	42320	
2280	0	35072	37240	48844	42066	
2281	0	35040	37193	48848	41808	
2282	0	35010	37084	48884	41536	
2283	0	34944	37092	48912	41236	
2284	0	35083	37168	48968	40956	
2285	0	35161	37089	48956	40657	
2286	0	35264	37056	48884	40313	
2287	0	35144	37024	48928	39996	
2288	0	35352	37012	48840	39668	
2289	0	35312	37160	48760	39320	
2290	0	35181	37178	48684	39032	
2291	0	35138	37380	48640	38672	
2292	0	35092	37466	48508	38397	
2293	0	35156	37592	48385	38044	
2294	0	35128	37708	48280	37716	
2295	0	35162	37869	48153	37312	
2296	0	35392	38064	47992	37068	
2297	0	35280	37992	47892	36736	
2298	0	35446	37960	47712	36386	
2299	0	35370	38196	47456	36096	
2300	0	35744	38880	47296	35742	
2301	0	35818	39564	47064	35440	
2302	0	36004	40100	46890	35096	
2303	0	35851	39952	46616	34788	
2304	0	35400	40452	46360	34560	
2305	0	34884	40993	46161	34217	
2306	0	35108	41788	45844	33840	
2307	0	35510	42728	45632	33550	
2308	0	35205	43272	45281	33286	
2309	0	34124	44672	45066	33072	
2310	0	33005	43564	44728	32724	
2311	0	34070	42994	44492	32476	
2312	0	35724	42024	44125	32192	
2313	0	35968	41236	43860	31892	
2314	0	34624	41232	43528	31588	
2315	0	36016	39832	43200	31352	
2316	0	34646	38848	42984	31108	
2317	0	32716	36861	42652	30876	
2318	0	30736	34472	42304	30600	
2319	0	31240	34120	41888	30338	
2320	0	32872	35065	41696	30124	
2321	0	34952	34882	41212	29920	
2322	0	35758	33912	40866	29696	
2323	0	36028	30836	40516	29465	
2324	0	33456	33156	40252	29266	
2325	0	32552	33980	39820	29081	
2326	0	31584	34416	39464	28948	
2327	0	31184	33981	39104	28724	
2328	0	31088	34053	38745	28538	
2329	0	31088	34362	38384	28364	
2330	0	31824	34488	38084	28206	
2331	0	32372	34465	37650	28040	
2332	0	32972	34517	37288	27848	
2333	0	33320	34753	36904	27648	
2334	0	33269	35146	36516	27498	
2335	0	33032	35340	36144	27336	
2336	0	32896	35740	35768	27164	
2337	0	33028	36218	35377	26962	
2338	0	33368	36356	35072	26796	
2339	0	33344	36816	34632	26652	
2340	0	33532	37450	34268	26480	
2341	0	33780	38104	33874	26316	
2342	0	34122	38336	33504	26141	
2343	0	34436	38664	33135	25978	
2344	0	34800	39164	32780	25792	
2345	0	34912	39700	32396	25657	
2346	0	35268	40296	32000	25500	
2347	0	35876	40657	31604	25344	
2348	0	36908	40984	31224	25178	
2349	0	38112	41220	30844	25036	
2350	0	39380	40944	30452	24878	
2351	0	40096	40824	30085	24732	
2352	0	41124	40164	29688	24585	
2353	0	42114	39536	29314	24438	
2354	0	42928	38516	28936	24297	
2355	0	43553	37652	28540	24161	
2356	0	43578	37036	28180	24020	
2357	0	44664	36112	27830	23890	
2358	0	46204	35684	27439	23749	
2359	0	46296	35829	27088	23624	
2360	0	37660	47426	26680	23502	
2361	0	45644	31904	26436	23368	
2362	0	16150	46596	25968	23252	
2363	0	14328	43428	25726	23132	
2364	0	44928	36136	25462	23006	
2365	0	51848	43417	25057	22904	
2366	0	39428	33282	24873	22792	
2367	0	28950	43848	24486	22704	
2368	0	40656	31324	24306	22618	
2369	0	35897	37381	23962	22528	
2370	0	33288	38028	23772	22434	
2371	0	35312	36308	23512	22350	
2372	0	34548	37498	23296	22294	
2373	0	34576	37308	23068	22244	
2374	0	34522	37322	22865	22176	
2375	0	34937	37136	22666	22177	
2376	0	34976	37100	22475	22156	
2377	0	34618	37288	22316	22108	
2378	0	34642	37344	22085	22118	
2379	0	34568	37502	21944	22136	
2380	0	34720	37312	21808	22160	
2381	0	34852	37252	21732	22184	
2382	0	34868	37318	21628	22290	
2383	0	34744	37384	21512	22312	
2384	0	34784	37417	21488	22365	
2385	0	34737	37460	21384	22436	
2386	0	34344	37616	21384	22533	
2387	0	34884	37592	21299	22693	
2388	0	34821	37472	21316	22770	
2389	0	34828	36920	21297	22850	
2390	0	35196	37440	21314	22938	
2391	0	35196	37185	21304	23001	
2392	0	36404	36864	21264	23088	
2393	0	35377	37337	21348	23248	
2394	0	35786	37024	21356	23288	
2395	0	35557	37120	21468	23400	
2396	0	35164	37377	21533	23504	
2397	0	35512	36888	21665	23642	
2398	0	35328	37121	21723	23722	
2399	0	35608	36744	21840	23864	
2400	0	35008	36817	21954	23950	
2401	0	35656	36914	22034	24096	
2402	0	35160	36968	22160	24140	
2403	0	35484	36885	22288	24280	
2404	0	35464	36820	22512	24412	
2405	0	35488	36938	22626	24596	
2406	0	35444	36932	22788	24685	
2407	0	35304	36904	22984	24868	
2408	0	35473	37024	23064	24989	
2409	0	35544	36948	23264	25245	
2410	0	35522	36992	23468	25372	
2411	0	35610	37076	23616	25568	
2412	0	35592	37136	23781	25770	
2413	0	35472	37268	23922	26024	
2414	0	35476	37298	24128	26250	
2415	0	35506	37502	24258	26481	
2416	0	35676	37524	24413	26720	
2417	0	35560	37341	24576	27004	
2418	0	35660	37525	24728	27272	
2419	0	35904	37856	24852	27548	
2420	0	35993	38492	25061	27834	
2421	0	36164	39196	25193	28164	
2422	0	36116	40202	25306	28450	
2423	0	36230	40764	25444	28796	
2424	0	35644	40996	25589	29060	
2425	0	34848	41674	25762	29360	
2426	0	34792	42972	25928	29714	
2427	0	33729	45532	26033	30032	
2428	0	32000	47064	26234	30298	
2429	0	32676	45792	26332	30656	
2430	0	33916	44181	26560	30920	
2431	0	39160	42960	26736	31236	
2432	0	37677	43708	26848	31556	
2433	0	41700	40980	27056	31856	
2434	0	37280	40834	27276	32152	
2435	0	33082	38664	27461	32461	
2436	0	26914	36968	27608	32845	
2437	0	27032	35808	27848	33104	
2438	0	35424	33044	28052	33388	
2439	0	36632	34076	28268	33796	
2440	0	34824	35292	28472	34000	
2441	0	33546	34436	28684	34300	
2442	0	35304	32580	28900	34640	
2443	0	35244	29912	29160	34956	
2444	0	34124	32246	29360	35250	
2445	0	33184	33085	29600	35580	
2446	0	32452	33408	29856	35928	
2447	0	32604	33332	30052	36130	
2448	0	32268	33417	30308	36424	
2449	0	31928	33520	30533	36736	
2450	0	32153	33692	30728	36928	
2451	0	32172	33780	30964	37252	
2452	0	32200	34180	31233	37446	
2453	0	32036	34600	31464	37726	
2454	0	32160	35068	31668	37888	
2455	0	32440	35096	31892	38184	
2456	0	32932	35333	32152	38417	
2457	0	33200	35757	32324	38618	
2458	0	33625	36197	32592	38776	
2459	0	33961	36680	32778	38993	
2460	0	34125	37176	33002	39096	
2461	0	34348	37858	33224	39314	
2462	0	34601	38425	33456	39396	
2463	0	35008	38908	33656	39540	
2464	0	35428	39500	33888	39704	
2465	0	35928	40068	34088	39874	
2466	0	36720	40492	34288	39888	
2467	0	37569	41056	34497	40096	
2468	0	38736	41692	34704	40160	
2469	0	40016	42136	34900	40300	
2470	0	41168	42080	35088	40293	
2471	0	42052	41417	35280	40389	
2472	0	42860	40336	35465	40540	
2473	0	43348	39540	35584	40614	
2474	0	43512	38628	35808	40640	
2475	0	43892	37452	35972	40808	
2476	0	46580	35584	36216	40869	
2477	0	47538	34710	36304	40869	
2478	0	45664	36104	36453	40934	
2479	0	51186	33868	36609	41016	
2480	0	29504	44741	36756	41188	
2481	0	9260	48312	36944	41224	
2482	0	32220	36714	37044	41209	
2483	0	53312	31365	37148	41276	
2484	0	46820	31020	37290	41380	
2485	0	28856	45968	37396	41520	
2486	0	41080	30766	37500	41428	
2487	0	35468	37128	37588	41592	
2488	0	33136	38208	37781	41565	
2489	0	34765	36600	37880	41584	
2490	0	33752	38160	37966	41665	
2491	0	34276	37544	38032	41672	
2492	0	34208	37502	38120	41852	
2493	0	34852	37390	38228	41801	
2494	0	34696	37209	38224	41776	
2495	0	34632	37296	38301	41840	
2496	0	34800	37184	38508	41896	
2497	0	34500	37392	38472	41868	
2498	0	34544	37348	38544	41904	
2499	0	34593	37604	38658	42044	
2500	0	34656	37316	38788	42009	
2501	0	34674	37386	38848	42002	
2502	0	34682	37478	38844	42009	
2503	0	34656	37424	38904	41960	
2504	0	34698	37388	38969	41956	
2505	0	34344	37581	39056	41960	
2506	0	34664	37080	39114	42004	
2507	0	34748	37352	39129	41964	
2508	0	34768	37412	39256	41832	
2509	0	35284	37088	39200	41892	
2510	0	34948	37352	39232	41804	
2511	0	34957	37300	39244	41728	
2512	0	35156	37280	39246	41517	
2513	0	35100	37196	39336	41392	
2514	0	35108	37312	39240	41300	
2515	0	35344	37026	39200	41140	
2516	0	35216	37116	39164	40992	
2517	0	35164	37228	39228	40922	
2518	0	35324	37036	39172	40664	
2519	0	35424	37168	39017	40449	
2520	0	35762	36724	38932	40264	
2521	0	35472	36964	38944	40196	
2522	0	35497	37020	38732	39928	
2523	0	35413	37059	38656	39693	
2524	0	35452	37036	38501	39632	
2525	0	35556	36852	38364	39292	
2526	0	35516	36864	38208	39204	
2527	0	35484	36985	38060	38944	
2528	0	35496	37096	37948	38820	
2529	0	35669	37272	37788	38536	
2530	0	35536	37408	37546	38437	
2531	0	35516	37504	37340	38132	
2532	0	35556	37572	37217	38037	
2533	0	35576	37696	36936	37736	
2534	0	35480	37564	36786	37541	
2535	0	35472	37888	36520	37336	
2536	0	35688	38072	36232	37142	
2537	0	35972	38784	35992	37074	
2538	0	36060	39352	35768	36764	
2539	0	35940	40484	35524	36688	
2540	0	35786	40942	35280	36484	
2541	0	35528	41504	35008	36144	
2542	0	34892	42328	34752	36072	
2543	0	34042	43272	34512	35748	
2544	0	33708	45066	34260	35608	
2545	0	31905	47076	33968	35392	
2546	0	33356	45088	33696	35240	
2547	0	36036	43228	33436	34931	
2548	0	37472	43252	33180	34702	
2549	0	38540	41256	32916	34490	
2550	0	39396	41008	32656	34272	
2551	0	37013	40372	32409	34065	
2552	0	31440	38928	32162	33909	
2553	0	26592	37280	31912	33657	
2554	0	27081	34136	31676	33424	
2555	0	37097	33056	31453	33220	
2556	0	37564	33824	31225	33004	
2557	0	34884	35660	31032	32796	
2558	0	34685	33464	30788	32589	
2559	0	35681	29968	30600	32386	
2560	0	35648	31090	30384	32164	
2561	0	33328	32250	30224	31954	
2562	0	31777	33916	30048	31748	
2563	0	31668	33888	29824	31520	
2564	0	31756	33552	29644	31296	
2565	0	31608	33688	29476	31081	
2566	0	31578	34029	29296	30868	
2567	0	31974	34344	29144	30600	
2568	0	32440	34488	28968	30392	
2569	0	32720	34580	28795	30184	
2570	0	32914	34776	28637	29856	
2571	0	32865	35104	28489	29626	
2572	0	32992	35432	28308	29366	
2573	0	33092	35968	28177	29084	
2574	0	33492	36254	28052	28748	
2575	0	33746	36552	27873	28488	
2576	0	33796	37208	27740	28197	
2577	0	33856	37744	27585	27896	
2578	0	34022	38404	27425	27594	
2579	0	34276	38738	27238	27304	
2580	0	34661	39192	27159	26973	
2581	0	35060	39733	26989	26677	
2582	0	35654	40386	26894	26412	
2583	0	36554	41177	26756	26128	
2584	0	37940	41644	26648	25837	
2585	0	39504	41572	26520	25568	
2586	0	41300	41659	26373	25357	
2587	0	42144	41400	26246	25053	
2588	0	43584	40834	26163	24818	
2589	0	44940	40320	26041	24594	
2590	0	45152	38856	25864	24395	
2591	0	45058	37388	25780	24221	
2592	0	45324	35946	25699	23999	
2593	0	47608	35028	25556	23838	
2594	0	47057	34877	25425	23696	
2595	0	41621	43396	25300	23520	
2596	0	42736	35860	25193	23396	
2597	0	16869	46700	25009	23252	
2598	0	14068	42640	24984	23140	
2599	0	36397	35044	24882	23062	
2600	0	46168	35588	24825	22956	
2601	0	50104	41288	24648	22894	
2602	0	37300	43636	24556	22800	
2603	0	34388	38128	24476	22778	
2604	0	39001	34556	24402	22713	
2605	0	33512	38689	24290	22672	
2606	0	33972	37044	24228	22646	
2607	0	34054	36992	24120	22634	
2608	0	33949	37772	24056	22656	
2609	0	33952	37368	23957	22637	
2610	0	34056	37462	23856	22678	
2611	0	34286	37545	23833	22736	
2612	0	34178	37556	23740	22792	
2613	0	34101	37505	23713	22872	
2614	0	34091	37482	23668	22934	
2615	0	34124	37572	23544	23056	
2616	0	34144	37448	23562	23192	
2617	0	34332	37388	23553	23296	
2618	0	34482	37380	23500	23436	
2619	0	34305	37584	23496	23596	
2620	0	35124	37688	23489	23746	
2621	0	35026	37456	23496	23926	
2622	0	34480	37362	23466	24100	
2623	0	34024	37448	23573	24272	
2624	0	34984	37244	23578	24446	
2625	0	34849	37096	23577	24636	
2626	0	34390	37314	23698	24805	
2627	0	34720	37576	23724	24982	
2628	0	35740	36974	23845	25200	
2629	0	34616	37544	23949	25328	
2630	0	35619	37196	24044	25484	
2631	0	35138	37298	24192	25658	
2632	0	35416	37124	24292	25801	
2633	0	35260	37101	24400	25978	
2634	0	35164	37060	24600	26184	
2635	0	34713	37416	24777	26283	
2636	0	35264	37168	24956	26428	
2637	0	35233	36944	25121	26654	
2638	0	35312	36960	25268	26720	
2639	0	35448	37017	25472	26894	
2640	0	35356	37080	25748	27010	
2641	0	35280	36805	25986	27194	
2642	0	35512	36768	26162	27296	
2643	0	35474	36996	26460	27446	
2644	0	35400	36952	26704	27594	
2645	0	35482	36964	26976	27720	
2646	0	35356	37392	27188	27872	
2647	0	35540	37516	27444	28084	
2648	0	35304	37700	27769	28236	
2649	0	35424	37696	28040	28320	
2650	0	35268	37824	28280	28500	
2651	0	35408	37873	28604	28685	
2652	0	35360	37740	28876	28848	
2653	0	35580	37712	29168	28932	
2654	0	35692	38076	29417	29088	
2655	0	36076	38736	29728	29322	
2656	0	36178	39296	30023	29421	
2657	0	36233	40065	30277	29641	
2658	0	36024	40630	30580	29768	
2659	0	35500	40688	30849	29932	
2660	0	35056	41364	31090	30081	
2661	0	34721	42416	31432	30245	
2662	0	35104	43380	31709	30413	
2663	0	34720	45228	31946	30600	
2664	0	32864	46024	32188	30813	
2665	0	32492	45070	32520	31004	
2666	0	34056	43112	32796	31114	
2667	0	37001	42716	33073	31284	
2668	0	36756	40944	33348	31460	
2669	0	40408	40440	33624	31652	
2670	0	37472	39501	33898	31905	
2671	0	32708	37944	34152	32025	
2672	0	27296	35354	34432	32244	
2673	0	31028	33888	34716	32498	
2674	0	34044	34880	35048	32688	
2675	0	33250	36436	35340	32929	
2676	0	35000	33800	35654	33090	
2677	0	36592	31596	35872	33386	
2678	0	34674	30684	36152	33608	
2679	0	32956	32860	36444	33834	
2680	0	31600	33386	36730	34070	
2681	0	31218	33490	37044	34222	
2682	0	30614	34056	37416	34520	
2683	0	30356	34776	37668	34692	
2684	0	30752	34666	37860	34904	
2685	0	31521	34829	38146	35108	
2686	0	31985	34956	38484	35344	
2687	0	32724	34793	38748	35562	
2688	0	33341	34634	38944	35710	
2689	0	33480	34656	39188	35930	
2690	0	33348	35188	39516	36068	
2691	0	33298	36032	39720	36280	
2692	0	33328	36288	39932	36388	
2693	0	33504	36624	40176	36541	
2694	0	33664	37144	40420	36700	
2695	0	33922	37716	40633	36824	
2696	0	34080	38228	40872	36968	
2697	0	34356	38944	41172	37072	
2698	0	34601	39360	41401	37170	
2699	0	35160	40048	41609	37332	
2700	0	35640	40404	41744	37416	
2701	0	36256	40988	41925	37468	
2702	0	37348	41360	42218	37586	
2703	0	38636	41952	42348	37649	
2704	0	40172	42004	42580	37748	
2705	0	41708	42076	42704	37794	
2706	0	42648	41681	42940	37873	
2707	0	44640	40816	43144	37944	
2708	0	45748	39244	43293	37980	
2709	0	46372	37856	43376	38048	
2710	0	46824	36252	43628	38100	
2711	0	47804	34952	43676	38144	
2712	0	46432	35672	43809	38220	
2713	0	44354	36784	43926	38256	
2714	0	43068	36952	44108	38292	
2715	0	39392	38112	44160	38354	
2716	0	21464	41856	44248	38373	
2717	0	8956	44488	44312	38406	
2718	0	37152	33488	44417	38450	
2719	0	43964	39114	44525	38473	
2720	0	50644	41777	44544	38528	
2721	0	37916	31969	44594	38544	
2722	0	29349	43877	44640	38561	
2723	0	39112	32920	44764	38584	
2724	0	34292	38032	44774	38634	
2725	0	32878	37924	44760	38632	
2726	0	34736	36770	44780	38664	
2727	0	33416	38048	44753	38680	
2728	0	34070	37644	44828	38697	
2729	0	34160	37604	44848	38704	
2730	0	34280	37636	44764	38716	
2731	0	34300	37417	44740	38765	
2732	0	34360	37408	44780	38776	
2733	0	34625	37202	44752	38788	
2734	0	34582	37268	44644	38776	
2735	0	34552	37328	44596	38808	
2736	0	34482	37448	44556	38784	
2737	0	34380	37328	44560	38780	
2738	0	35137	37373	44428	38752	
2739	0	34580	37364	44352	38736	
2740	0	34592	37568	44258	38744	
2741	0	34808	37324	44221	38672	
2742	0	34784	37272	44089	38652	
2743	0	34440	37394	43994	38569	
2744	0	34720	37216	43821	38496	
2745	0	35173	37034	43752	38388	
2746	0	34724	37176	43616	38308	
2747	0	34908	37308	43372	38164	
2748	0	34960	37212	43244	38036	
2749	0	35744	37100	43036	37920	
2750	0	35216	37164	42952	37720	
2751	0	34533	37368	42644	37560	
2752	0	35336	37208	42452	37332	
2753	0	35168	37164	42196	37168	
2754	0	35008	37224	41961	36953	
2755	0	35076	37131	41728	36712	
2756	0	35120	37112	41556	36496	
2757	0	35264	37108	41240	36212	
2758	0	35266	37176	40976	35972	
2759	0	35332	37130	40856	35716	
2760	0	35392	37104	40448	35488	
2761	0	35252	37066	40248	35204	
2762	0	35302	37064	40016	34996	
2763	0	35328	37296	39632	34728	
2764	0	35265	37412	39432	34460	
2765	0	35316	37538	39072	34233	
2766	0	35344	37524	38777	33984	
2767	0	35338	37668	38480	33788	
2768	0	35468	37712	38192	33540	
2769	0	35392	37816	37912	33328	
2770	0	35472	37584	37698	33088	
2771	0	35340	38080	37307	32888	
2772	0	35672	38384	37048	32696	
2773	0	36020	38764	36740	32504	
2774	0	36233	39296	36418	32320	
2775	0	35932	39653	36136	32128	
2776	0	35861	40220	35811	31978	
2777	0	35556	40352	35504	31792	
2778	0	35252	41212	35228	31620	
2779	0	35100	42072	34972	31480	
2780	0	35165	43408	34616	31345	
2781	0	34976	44293	34324	31164	
2782	0	33776	45248	34004	31024	
2783	0	33793	44457	33668	30884	
2784	0	34704	43577	33384	30785	
2785	0	35696	42676	33096	30633	
2786	0	34872	41344	32786	30560	
2787	0	37420	40170	32449	30388	
2788	0	37234	39592	32146	30292	
2789	0	35252	38348	31824	30212	
2790	0	30636	36804	31493	30074	
2791	0	29408	34984	31188	29984	
2792	0	32878	33412	30906	29892	
2793	0	36000	34888	30572	29794	
2794	0	34114	35262	30245	29708	
2795	0	31888	36532	29940	29644	
2796	0	34140	30432	29644	29608	
2797	0	35280	33020	29348	29488	
2798	0	32021	33250	29062	29376	
2799	0	30781	34672	28736	29308	
2800	0	31220	33866	28452	29220	
2801	0	31032	33896	28164	29161	
2802	0	31128	34316	27879	29040	
2803	0	31641	34408	27600	28944	
2804	0	31980	34528	27320	28932	
2805	0	32588	34396	27040	28748	
2806	0	33073	34490	26773	28668	
2807	0	33308	34684	26532	28530	
2808	0	33340	35172	26289	28420	
2809	0	33245	35768	25996	28282	
2810	0	33188	36188	25793	28164	
2811	0	33552	36700	25500	28096	
2812	0	33748	37204	25248	27912	
2813	0	33894	37580	25024	27789	
2814	0	34116	38240	24780	27640	
2815	0	34200	38904	24592	27524	
2816	0	34348	39424	24400	27384	
2817	0	34784	39920	24152	27244	
2818	0	35432	40520	23922	27120	
2819	0	36016	41020	23756	26968	
2820	0	36888	41521	23524	26845	
2821	0	38068	41792	23392	26700	
2822	0	39232	41892	23178	26580	
2823	0	40560	42117	22970	26457	
2824	0	41676	41814	22814	26296	
2825	0	43296	40960	22616	26244	
2826	0	44352	39456	22496	26072	
2827	0	45320	38164	22304	25924	
2828	0	47244	36028	22130	25788	
2829	0	50164	34860	21984	25693	
2830	0	47008	34520	21822	25568	
2831	0	35725	47932	21676	25449	
2832	0	45608	36076	21490	25376	
2833	0	29984	43969	21292	25220	
2834	0	12441	42980	21161	25204	
2835	0	26370	37220	21089	25092	
2836	0	49728	34802	20956	25010	
2837	0	55384	45408	20852	24950	
2838	0	34112	38337	20692	24878	
2839	0	30594	42746	20566	24822	
2840	0	40168	33413	20452	24777	
2841	0	34324	37828	20376	24760	
2842	0	33048	37944	20316	24787	
2843	0	34733	36632	20252	24745	
2844	0	33760	37944	20176	24754	
2845	0	34228	37432	20082	24768	
2846	0	34236	37536	19997	24780	
2847	0	34404	37532	19969	24805	
2848	0	34201	37512	19992	24924	
2849	0	34226	37544	19941	25042	
2850	0	34220	37548	19972	25124	
2851	0	34144	37536	19976	25218	
2852	0	34200	37108	20024	25372	
2853	0	34501	37334	20060	25500	
2854	0	34396	37424	20033	25652	
2855	0	34748	37289	20157	25813	
2856	0	34784	37280	20200	25996	
2857	0	34340	37524	20264	26186	
2858	0	35349	37064	20416	26344	
2859	0	34898	37320	20545	26498	
2860	0	34936	37233	20630	26760	
2861	0	34940	37392	20768	26914	
2862	0	34785	37164	20962	27178	
2863	0	33948	37172	21077	27309	
2864	0	34932	37392	21320	27510	
2865	0	34692	37368	21484	27721	
2866	0	36000	36936	21670	27924	
2867	0	34926	37244	21889	28096	
2868	0	35176	37148	22041	28296	
2869	0	35016	37192	22284	28448	
2870	0	34980	37208	22528	28641	
2871	0	35066	37128	22664	28820	
2872	0	35157	37080	22948	28944	
2873	0	35272	36980	23176	29169	
2874	0	35282	37160	23420	29340	
2875	0	35164	37124	23661	29514	
2876	0	35296	37100	23936	29696	
2877	0	35256	37202	24152	29864	
2878	0	35298	37177	24392	30074	
2879	0	35256	37250	24644	30206	
2880	0	35372	37509	24885	30364	
2881	0	35204	37660	25128	30536	
2882	0	35350	37704	25404	30716	
2883	0	35360	37724	25593	30893	
2884	0	35296	38044	25892	31096	
2885	0	35124	38084	26104	31248	
2886	0	35300	37872	26380	31444	
2887	0	35252	38220	26614	31608	
2888	0	35628	38576	26840	31820	
2889	0	35932	38976	27024	32024	
2890	0	36120	39532	27284	32160	
2891	0	35960	40296	27528	32369	
2892	0	35659	40556	27706	32568	
2893	0	35124	41272	27924	32716	
2894	0	34808	42000	28188	32941	
2895	0	34882	42928	28352	33152	
2896	0	34644	44073	28592	33308	
2897	0	33916	46024	28800	33512	
2898	0	32968	45432	29004	33606	
2899	0	33728	43916	29244	33772	
2900	0	34698	43208	29433	34040	
2901	0	36768	41984	29696	34186	
2902	0	38664	40652	29916	34344	
2903	0	38429	40505	30149	34520	
2904	0	34212	39013	30337	34672	
2905	0	29861	37372	30561	34842	
2906	0	27896	36032	30800	35082	
2907	0	29792	34496	31020	35300	
2908	0	34220	34816	31244	35488	
2909	0	34054	34400	31490	35680	
2910	0	32804	36112	31666	35872	
2911	0	35189	33616	31908	36080	
2912	0	35600	30432	32144	36257	
2913	0	34292	33507	32400	36470	
2914	0	32116	34284	32624	36593	
2915	0	31752	34340	32912	36880	
2916	0	31849	34000	33104	36992	
2917	0	31680	33988	33356	37250	
2918	0	31482	34582	33624	37360	
2919	0	31409	35024	33832	37520	
2920	0	31650	35168	34096	37768	
2921	0	32028	35400	34368	37972	
2922	0	32493	35408	34600	38002	
2923	0	32748	35672	34864	38146	
2924	0	33116	35880	35177	38288	
2925	0	33340	36232	35376	38456	
2926	0	33604	36696	35704	38544	
2927	0	33728	37160	35880	38720	
2928	0	33928	37724	36199	38864	
2929	0	34074	38212	36464	38936	
2930	0	34218	38688	36672	38905	
2931	0	34560	39328	37012	39000	
2932	0	35141	39964	37186	39176	
2933	0	36192	40424	37448	39212	
2934	0	37225	40744	37692	39237	
2935	0	38146	41072	37953	39296	
2936	0	39356	41336	38208	39464	
2937	0	40801	41408	38414	39368	
2938	0	41328	41340	38744	39421	
2939	0	42668	40453	38884	39560	
2940	0	44300	39628	39188	39640	
2941	0	45016	38665	39340	39620	
2942	0	45340	37424	39561	39696	
2943	0	46076	35976	39784	39626	
2944	0	47352	34744	40112	39649	
2945	0	46932	34712	40176	39768	
2946	0	45460	35466	40384	39824	
2947	0	37820	44524	40512	39856	
2948	0	40440	35612	40840	39768	
2949	0	10413	50688	40866	39820	
2950	0	23770	38460	41009	39828	
2951	0	43148	37756	41156	39936	
2952	0	54140	33897	41304	39824	
2953	0	37960	29572	41537	39937	
2954	0	26536	47404	41560	39952	
2955	0	40372	33160	41728	39913	
2956	0	35712	37076	41817	39992	
2957	0	32448	38228	41928	39996	
2958	0	34792	36562	42098	39936	
2959	0	34036	37656	42272	39884	
2960	0	34033	37616	42288	39964	
2961	0	34232	37520	42444	39900	
2962	0	34190	37473	42449	39920	
2963	0	34336	37404	42616	39936	
2964	0	33936	37628	42576	40012	
2965	0	34284	37440	42632	40020	
2966	0	34376	37464	42737	39976	
2967	0	34384	37416	42869	40000	
2968	0	34324	37508	42904	39928	
2969	0	34348	37476	42968	40016	
2970	0	34452	37364	43040	39978	
2971	0	34336	37660	43064	39916	
2972	0	34340	37508	43081	39916	
2973	0	34560	37466	43040	39872	
2974	0	34496	37424	43088	39840	
2975	0	34722	37400	43080	39816	
2976	0	34460	37408	43141	39748	
2977	0	35566	36944	43081	39648	
2978	0	34864	37564	43068	39620	
2979	0	34668	37428	43124	39468	
2980	0	35332	36916	43032	39400	
2981	0	34726	37432	43040	39236	
2982	0	34968	37317	42945	39082	
2983	0	34968	37268	42884	39008	
2984	0	35088	37205	42792	38780	
2985	0	35440	37092	42833	38617	
2986	0	35012	36852	42641	38410	
2987	0	35424	37193	42520	38239	
2988	0	34968	36970	42520	38080	
2989	0	35220	36992	42260	37812	
2990	0	35204	37006	42112	37620	
2991	0	35224	37100	41960	37400	
2992	0	35348	37140	41940	37160	
2993	0	35212	37124	41696	36954	
2994	0	35230	37256	41466	36728	
2995	0	35272	37216	41244	36481	
2996	0	35184	37332	41032	36240	
2997	0	35200	37540	40808	36004	
2998	0	35224	37608	40716	35782	
2999	0	35362	37721	40476	35556	
3000	0	35341	37856	40172	35316	
3001	0	35336	38000	39952	35088	
3002	0	35488	38004	39608	34880	
3003	0	35552	37892	39344	34668	
3004	0	35329	38200	39112	34428	
3005	0	35776	38376	38784	34260	
3006	0	35720	39064	38496	34016	
3007	0	35708	40026	38200	33808	
3008	0	35772	40640	37920	33624	
3009	0	35684	40884	37668	33400	
3010	0	35144	41408	37352	33188	
3011	0	34332	42181	37029	32996	
3012	0	34405	43520	36720	32793	
3013	0	33061	45378	36436	32608	
3014	0	32125	45340	36130	32452	
3015	0	33857	44232	35776	32236	
3016	0	34697	43644	35486	32114	
3017	0	36274	42404	35148	31918	
3018	0	38472	40756	34824	31710	
3019	0	37640	40760	34508	31540	
3020	0	33888	39904	34178	31376	
3021	0	30892	37758	33872	31229	
3022	0	28080	36550	33540	31124	
3023	0	29000	34840	33293	30965	
3024	0	36576	34497	32920	30816	
3025	0	34916	34840	32618	30724	
3026	0	33378	35722	32372	30564	
3027	0	34088	32868	32088	30442	
3028	0	35010	32952	31762	30296	
3029	0	32584	33664	31517	30237	
3030	0	30304	34960	31268	30064	
3031	0	30466	34744	31044	29933	
3032	0	31340	34637	30778	29846	
3033	0	31292	34824	30556	29721	
3034	0	31740	34844	30353	29576	
3035	0	32144	35092	30152	29464	
3036	0	32784	35142	29973	29322	
3037	0	33132	35204	29784	29176	
3038	0	33440	35208	29626	29077	
3039	0	33360	35628	29456	28865	
3040	0	33400	36240	29284	28701	
3041	0	33660	36668	29152	28524	
3042	0	33812	37220	29004	28410	
3043	0	34088	37640	28860	28216	
3044	0	34388	38164	28716	27994	
3045	0	34836	38524	28552	27802	
3046	0	35024	39057	28484	27596	
3047	0	35841	39668	28357	27402	
3048	0	36460	40132	28180	27253	
3049	0	37080	40456	28107	27038	
3050	0	37861	40824	28000	26849	
3051	0	38766	41232	27877	26704	
3052	0	39708	41592	27776	26515	
3053	0	40864	41948	27698	26297	
3054	0	41764	41588	27528	26164	
3055	0	42904	40948	27442	25957	
3056	0	44016	40068	27334	25801	
3057	0	44784	38652	27270	25690	
3058	0	45504	37021	27168	25541	
3059	0	48260	35284	27056	25420	
3060	0	48260	34529	26972	25256	
3061	0	45816	35752	26818	25148	
3062	0	37484	48520	26653	25028	
3063	0	45152	36714	26624	24938	
3064	0	27620	43392	26468	24850	
3065	0	10192	43153	26373	24770	
3066	0	27826	37081	26292	24744	
3067	0	51536	37988	26160	24680	
3068	0	47808	36345	26088	24594	
3069	0	35544	41168	25986	24581	
3070	0	34220	39026	25864	24556	
3071	0	38512	35336	25828	24544	
3072	0	34953	37440	25694	24562	
3073	0	33457	37656	25617	24568	
3074	0	34808	36544	25568	24614	
3075	0	33840	37920	25400	24622	
3076	0	34568	37220	25404	24696	
3077	0	34464	37505	25288	24786	
3078	0	34760	37368	25298	24857	
3079	0	34556	37368	25256	24945	
3080	0	34468	37333	25168	25065	
3081	0	34716	37272	25156	25253	
3082	0	34636	37328	25076	25360	
3083	0	34746	37268	25124	25520	
3084	0	34840	37308	25074	25690	
3085	0	34668	37349	25092	25850	
3086	0	35012	37040	25096	26043	
3087	0	34994	37240	25168	26264	
3088	0	34860	37248	25120	26442	
3089	0	34784	37368	25236	26609	
3090	0	34756	37410	25245	26812	
3091	0	34981	37128	25348	27012	
3092	0	34844	37177	25394	27248	
3093	0	35032	37264	25494	27432	
3094	0	35120	37186	25520	27692	
3095	0	35788	37080	25630	27802	
3096	0	35212	37056	25748	27989	
3097	0	35248	37160	25916	28188	
3098	0	35028	37244	26073	28392	
3099	0	35056	37292	26226	28642	
3100	0	35248	37153	26352	28736	
3101	0	35268	37032	26508	28897	
3102	0	35041	37280	26684	29117	
3103	0	35316	37016	26868	29224	
3104	0	35434	36997	27077	29384	
3105	0	35440	37025	27256	29532	
3106	0	35416	37060	27432	29682	
3107	0	35453	37129	27665	29894	
3108	0	35420	37240	27900	29968	
3109	0	35480	37115	28104	30112	
3110	0	35608	37208	28345	30208	
3111	0	35568	37280	28576	30320	
3112	0	35488	37596	28788	30444	
3113	0	35336	37796	29040	30520	
3114	0	35340	37944	29284	30604	
3115	0	35444	37948	29525	30688	
3116	0	35488	37898	29749	30858	
3117	0	35480	37928	30030	30912	
3118	0	35780	38260	30284	30936	
3119	0	36116	38844	30521	31004	
3120	0	36080	39584	30814	31092	
3121	0	35880	40184	31074	31148	
3122	0	36060	40940	31306	31280	
3123	0	35144	41384	31596	31260	
3124	0	34968	41744	31842	31384	
3125	0	34930	42888	32110	31452	
3126	0	34104	45248	32457	31500	
3127	0	32029	46744	32732	31577	
3128	0	32394	45920	33008	31580	
3129	0	36704	43506	33298	31644	
3130	0	38188	46692	33572	31716	
3131	0	34962	42824	33844	31768	
3132	0	35716	41288	34152	31820	
3133	0	34812	40824	34460	31896	
3134	0	30952	38396	34762	32000	
3135	0	26300	36744	35024	32112	
3136	0	27268	35128	35344	32144	
3137	0	35264	31332	35712	32288	
3138	0	38664	33688	36038	32308	
3139	0	33596	36584	36268	32395	
3140	0	35784	29772	36688	32538	
3141	0	35444	32602	36913	32604	
3142	0	32836	32376	37220	32716	
3143	0	29868	35376	37636	32798	
3144	0	30492	34440	37889	32888	
3145	0	31020	34096	38200	32992	
3146	0	30525	34588	38448	33080	
3147	0	31145	34629	38756	33192	
3148	0	31997	34633	39036	33290	
3149	0	32470	34990	39420	33378	
3150	0	32748	35272	39604	33468	
3151	0	33085	35592	39880	33554	
3152	0	33394	35885	40172	33641	
3153	0	33868	36388	40468	33712	
3154	0	34224	36824	40736	33792	
3155	0	34412	37244	40957	33848	
3156	0	34424	37708	41192	33952	
3157	0	34529	38172	41440	33984	
3158	0	34852	38697	41720	34040	
3159	0	35120	39052	41904	34098	
3160	0	35560	39560	42136	34180	
3161	0	35972	39967	42352	34240	
3162	0	36832	40257	42553	34232	
3163	0	37764	40560	42745	34277	
3164	0	38664	40650	43008	34340	
3165	0	39896	40737	43112	34408	
3166	0	40832	40960	43280	34396	
3167	0	41744	40717	43536	34476	
3168	0	42820	40132	43604	34544	
3169	0	43892	39280	43762	34576	
3170	0	44800	38080	43880	34612	
3171	0	44416	37020	44000	34646	
3172	0	44460	36112	44146	34688	
3173	0	45788	35108	44232	34716	
3174	0	45737	35128	44324	34708	
3175	0	43368	36176	44477	34776	
3176	0	36140	48508	44468	34833	
3177	0	41512	35020	44564	34888	
3178	0	14993	45768	44648	34892	
3179	0	16200	40832	44680	34936	
3180	0	41864	36017	44740	34960	
3181	0	51292	38468	44786	35000	
3182	0	42528	27894	44836	35068	
3183	0	27596	46600	44812	35024	
3184	0	40700	32872	44876	35068	
3185	0	35212	37112	44836	35080	
3186	0	32912	38668	44884	35206	
3187	0	34704	36512	44888	35141	
3188	0	34136	37513	44824	35225	
3189	0	34193	37672	44801	35204	
3190	0	34457	37332	44808	35336	
3191	0	34584	37613	44776	35296	
3192	0	34354	37472	44736	35356	
3193	0	34396	37580	44772	35432	
3194	0	34620	37200	44692	35496	
3195	0	34440	37376	44712	35456	
3196	0	34656	37300	44676	35592	
3197	0	34604	37348	44625	35604	
3198	0	34556	37432	44604	35640	
3199	0	34528	37448	44476	35728	
3200	0	34648	37597	44480	35757	
3201	0	34573	37600	44368	35764	
3202	0	34506	37600	44280	35860	
3203	0	34592	37316	44216	35876	
3204	0	34592	37368	44198	35926	
3205	0	34920	37344	44024	35904	
3206	0	34845	37276	43928	35948	
3207	0	34948	37328	43808	35924	
3208	0	34784	37366	43698	35944	
3209	0	35132	37224	43584	35936	
3210	0	34628	37332	43460	35885	
3211	0	35453	36980	43317	35897	
3212	0	34936	37516	43168	35817	
3213	0	35216	37117	42988	35800	
3214	0	35108	37117	42752	35712	
3215	0	35236	36992	42616	35648	
3216	0	35344	36998	42492	35570	
3217	0	35256	36884	42224	35476	
3218	0	35284	36976	42088	35376	
3219	0	35312	36928	41728	35282	
3220	0	35524	36928	41588	35172	
3221	0	35445	36988	41290	35040	
3222	0	35272	37156	41032	34932	
3223	0	35444	37074	40864	34804	
3224	0	35304	37268	40512	34668	
3225	0	35386	37398	40281	34538	
3226	0	35556	37564	40032	34388	
3227	0	35264	37809	39712	34244	
3228	0	35392	37780	39472	34112	
3229	0	35596	37784	39244	33953	
3230	0	35641	38032	38868	33810	
3231	0	35828	38048	38632	33668	
3232	0	35564	38233	38332	33560	
3233	0	35772	38482	38004	33388	
3234	0	35988	39036	37604	33278	
3235	0	35833	39444	37316	33144	
3236	0	35876	40394	37012	33012	
3237	0	35601	40968	36653	32842	
3238	0	35424	41248	36321	32684	
3239	0	34768	41952	35972	32560	
3240	0	34345	43112	35632	32456	
3241	0	33512	45384	35304	32308	
3242	0	32280	46566	34940	32220	
3243	0	33168	45652	34561	32080	
3244	0	34364	45264	34272	31948	
3245	0	36834	43460	33888	31860	
3246	0	36534	42984	33490	31740	
3247	0	39000	41432	33161	31656	
3248	0	36862	40400	32800	31568	
3249	0	31884	38386	32432	31456	
3250	0	29408	36344	32084	31441	
3251	0	31482	33912	31708	31305	
3252	0	38456	34221	31322	31216	
3253	0	35600	35608	30966	31139	
3254	0	32500	36101	30596	31122	
3255	0	34352	30520	30240	31028	
3256	0	35929	33212	29888	31044	
3257	0	32371	33112	29584	30928	
3258	0	30841	34401	29250	30892	
3259	0	31132	33866	28914	30808	
3260	0	31324	33876	28602	30756	
3261	0	31248	34029	28301	30800	
3262	0	31528	34084	28016	30644	
3263	0	32093	34024	27746	30612	
3264	0	32688	33817	27489	30588	
3265	0	33100	33890	27244	30507	
3266	0	33248	33977	26986	30437	
3267	0	33261	34124	26765	30382	
3268	0	33152	34528	26573	30400	
3269	0	33154	34981	26368	30272	
3270	0	33138	35408	26176	30184	
3271	0	33288	35824	25988	30105	
3272	0	33566	36144	25816	30044	
3273	0	33633	36448	25603	30021	
3274	0	33685	36920	25464	29856	
3275	0	33921	37564	25298	29768	
3276	0	33912	37845	25132	29765	
3277	0	34328	38288	25025	29620	
3278	0	34630	38896	24853	29509	
3279	0	35256	39393	24692	29424	
3280	0	36192	39868	24588	29321	
3281	0	37568	40360	24437	29238	
3282	0	38920	40868	24317	29152	
3283	0	40489	41742	24180	29028	
3284	0	42124	42256	24047	28944	
3285	0	43952	42340	23925	28836	
3286	0	45596	41184	23749	28773	
3287	0	47396	40024	23636	28707	
3288	0	48144	38173	23556	28620	
3289	0	50600	35656	23438	28592	
3290	0	43768	42360	23278	28472	
3291	0	51568	32124	23236	28449	
3292	0	35468	48344	23038	28376	
3293	0	26792	46284	22901	28308	
3294	0	20370	41220	22826	28268	
3295	0	49628	35674	22737	28216	
3296	0	47168	27448	22682	28188	
3297	0	37773	43481	22498	28156	
3298	0	35632	35749	22441	28164	
3299	0	38620	36274	22265	28137	
3300	0	34200	37940	22250	28130	
3301	0	34344	36608	22100	28160	
3302	0	34540	37292	22074	28198	
3303	0	33672	38304	21993	28196	
3304	0	34181	37384	21897	28276	
3305	0	34600	37524	21851	28282	
3306	0	34539	37040	21722	28360	
3307	0	34272	37552	21744	28402	
3308	0	34817	37304	21696	28560	
3309	0	34592	37116	21656	28557	
3310	0	36176	36876	21616	28700	
3311	0	34232	37488	21572	28824	
3312	0	34460	37192	21554	28964	
3313	0	35100	37168	21592	29072	
3314	0	33184	37216	21601	29192	
3315	0	34884	37464	21628	29324	
3316	0	33890	37264	21604	29498	
3317	0	34784	37396	21658	29581	
3318	0	35228	37274	21686	29774	
3319	0	35130	37404	21741	29882	
3320	0	35285	37166	21842	30025	
3321	0	35352	37152	21916	30072	
3322	0	35250	37308	21997	30240	
3323	0	35402	37324	22075	30368	
3324	0	35424	37040	22108	30386	
3325	0	35208	36701	22196	30528	
3326	0	35968	36380	22376	30624	
3327	0	35385	36096	22485	30665	
3328	0	35928	36181	22556	30717	
3329	0	35841	36060	22694	30718	
3330	0	35928	35892	22814	30760	
3331	0	36036	36083	22889	30828	
3332	0	36074	36257	23068	30836	
3333	0	36224	36664	23194	30846	
3334	0	36288	36808	23318	30812	
3335	0	36076	36948	23450	30834	
3336	0	36204	37320	23600	30792	
3337	0	36000	37260	23720	30776	
3338	0	36197	37490	23846	30805	
3339	0	35876	37784	23908	30702	
3340	0	35908	38056	24056	30664	
3341	0	36128	37989	24169	30632	
3342	0	35808	38162	24315	30588	
3343	0	35848	38108	24408	30516	
3344	0	35924	37981	24468	30482	
3345	0	35884	38376	24597	30492	
3346	0	35896	39248	24652	30445	
3347	0	36329	39776	24822	30420	
3348	0	36588	40129	24864	30364	
3349	0	36512	40624	25005	30352	
3350	0	36004	41354	25040	30365	
3351	0	35376	42072	25132	30324	
3352	0	34924	43368	25208	30324	
3353	0	34524	44780	25236	30326	
3354	0	34660	45136	25318	30368	
3355	0	33848	44405	25386	30340	
3356	0	35812	43802	25498	30336	
3357	0	35848	42668	25569	30345	
3358	0	35988	41834	25628	30372	
3359	0	36808	42084	25712	30404	
3360	0	35024	40394	25792	30450	
3361	0	31828	38362	25838	30501	
3362	0	30433	35077	25912	30548	
3363	0	30594	34392	26022	30616	
3364	0	33522	34792	26096	30657	
3365	0	32284	37956	26130	30728	
3366	0	36389	32336	26324	30856	
3367	0	35668	31829	26436	30936	
3368	0	33360	34381	26536	31021	
3369	0	32170	35048	26674	31097	
3370	0	31978	34656	26784	31184	
3371	0	32104	34104	26948	31328	
3372	0	31878	34544	27090	31384	
3373	0	31976	34872	27268	31465	
3374	0	32184	34896	27420	31568	
3375	0	32424	34812	27616	31688	
3376	0	32536	34792	27808	31765	
3377	0	32504	34920	28000	31888	
3378	0	32581	35084	28196	31944	
3379	0	32786	35328	28392	32028	
3380	0	32664	35668	28580	32097	
3381	0	32776	36120	28808	32172	
3382	0	32996	36576	29008	32260	
3383	0	33144	36986	29232	32292	
3384	0	33364	37396	29437	32350	
3385	0	33460	37952	29640	32440	
3386	0	33554	38688	29825	32508	
3387	0	33858	39380	30044	32552	
3388	0	34404	39888	30240	32540	
3389	0	35208	40288	30402	32572	
3390	0	36136	40620	30636	32701	
3391	0	37280	41040	30818	32682	
3392	0	38784	41496	30977	32804	
3393	0	40120	41480	31196	32732	
3394	0	42081	41784	31336	32740	
3395	0	43266	41538	31552	32776	
3396	0	44872	40844	31710	32856	
3397	0	46076	39561	31861	32832	
3398	0	46634	38240	32009	32861	
3399	0	49264	36112	32145	32897	
3400	0	48228	39594	32300	32984	
3401	0	51568	33872	32425	32965	
3402	0	46859	35904	32592	32955	
3403	0	39136	45920	32644	32972	
3404	0	20157	42153	32816	33104	
3405	0	30412	39489	32936	33117	
3406	0	51288	31008	33056	33070	
3407	0	38810	25718	33212	33076	
3408	0	29916	47042	33245	33192	
3409	0	40894	33826	33417	33136	
3410	0	35680	38364	33508	33260	
3411	0	33657	37549	33585	33276	
3412	0	34089	37652	33697	33256	
3413	0	33684	37824	33840	33371	
3414	0	34512	37284	33925	33413	
3415	0	34636	37288	34065	33426	
3416	0	34760	37060	34164	33456	
3417	0	34448	37486	34304	33504	
3418	0	34497	37484	34424	33586	
3419	0	34432	37452	34568	33662	
3420	0	34228	37540	34709	33842	
3421	0	34378	37428	34908	33889	
3422	0	34672	37452	34996	33940	
3423	0	34192	37808	35176	34138	
3424	0	34380	37356	35356	34237	
3425	0	34220	37596	35496	34384	
3426	0	34347	37584	35720	34416	
3427	0	34636	37298	35868	34620	
3428	0	35016	37141	36056	34762	
3429	0	35832	37168	36312	34904	
3430	0	35008	37136	36528	35048	
3431	0	35154	37152	36748	35117	
3432	0	34985	37280	36944	35253	
3433	0	35176	37232	37146	35492	
3434	0	35020	37196	37266	35560	
3435	0	35137	37258	37477	35744	
3436	0	35232	37284	37692	35968	
3437	0	35104	37220	37912	36020	
3438	0	35144	37228	38105	36252	
3439	0	35242	37196	38322	36396	
3440	0	35162	37072	38560	36512	
3441	0	35344	37144	38836	36624	
3442	0	35536	37145	38917	36840	
3443	0	35360	36997	39120	36914	
3444	0	35472	37180	39308	37132	
3445	0	35576	37226	39548	37176	
3446	0	35445	37258	39680	37312	
3447	0	35473	37296	39972	37508	
3448	0	35500	37400	40140	37682	
3449	0	35328	37700	40240	37816	
3450	0	35521	37792	40428	37936	
3451	0	35480	37940	40562	38016	
3452	0	35357	38164	40772	38228	
3453	0	35484	38200	40944	38320	
3454	0	35524	38165	40992	38516	
3455	0	35476	38528	41156	38688	
3456	0	35616	39376	41322	38754	
3457	0	36152	39980	41400	38948	
3458	0	36100	40793	41525	39141	
3459	0	35852	41081	41686	39204	
3460	0	35146	41952	41784	39392	
3461	0	34756	42992	41894	39584	
3462	0	34634	44112	42040	39720	
3463	0	34244	46400	42156	39812	
3464	0	33345	46753	42260	39921	
3465	0	34730	45476	42395	40152	
3466	0	38180	44048	42544	40284	
3467	0	35228	43696	42608	40440	
3468	0	39346	41962	42724	40505	
3469	0	37960	41144	42932	40720	
3470	0	33368	39280	43000	40748	
3471	0	28644	36832	43152	40954	
3472	0	28608	35369	43248	41036	
3473	0	35096	34662	43458	41184	
3474	0	34568	35304	43548	41344	
3475	0	33954	36320	43780	41376	
3476	0	36032	31248	43877	41564	
3477	0	34484	32360	44048	41644	
3478	0	32522	33192	44192	41824	
3479	0	30641	34800	44412	41889	
3480	0	30688	33688	44597	42056	
3481	0	30814	33678	44760	42172	
3482	0	30946	33832	44936	42240	
3483	0	31240	33980	45188	42449	
3484	0	31568	34264	45344	42560	
3485	0	32236	34002	45533	42632	
3486	0	32605	34152	45728	42772	
3487	0	32788	34216	45936	42908	
3488	0	32784	34654	46128	42954	
3489	0	32677	34944	46316	43076	
3490	0	32724	35372	46588	43250	
3491	0	32932	35972	46756	43298	
3492	0	33152	36253	46906	43404	
3493	0	33360	36722	47096	43561	
3494	0	33576	37113	47284	43600	
3495	0	33740	37448	47446	43752	
3496	0	34009	37977	47668	43808	
3497	0	34428	38734	47872	43864	
3498	0	34944	39556	48001	43944	
3499	0	35772	40092	48204	44072	
3500	0	36925	40697	48297	44168	
3501	0	38420	41120	48416	44232	
3502	0	39940	42090	48620	44308	
3503	0	41792	42432	48680	44384	
3504	0	43140	42304	48866	44428	
3505	0	44680	41376	48920	44493	
3506	0	45582	40328	49104	44548	
3507	0	46484	39040	49156	44616	
3508	0	46656	37472	49300	44668	
3509	0	49580	35036	49392	44741	
3510	0	49724	34378	49394	44788	
3511	0	46788	37944	49520	44804	
3512	0	50220	37544	49556	44848	
3513	0	29117	46600	49568	44898	
3514	0	9584	43872	49608	44932	
3515	0	28309	35140	49664	45008	
3516	0	45386	37644	49624	44992	
3517	0	54448	36506	49648	45056	
3518	0	35392	31778	49688	45076	
3519	0	29389	45184	49592	45050	
3520	0	42808	33892	49556	45064	
3521	0	34984	37708	49600	45100	
3522	0	32960	37848	49520	45124	
3523	0	34572	36924	49480	45136	
3524	0	33272	38210	49384	45120	
3525	0	34358	37424	49320	45132	
3526	0	34458	37456	49252	45124	
3527	0	34412	37328	49152	45068	
3528	0	34292	37472	49104	45100	
3529	0	34532	37316	49008	45048	
3530	0	34368	37378	48920	45028	
3531	0	34380	37408	48864	45024	
3532	0	34344	37493	48788	45032	
3533	0	34385	37356	48704	44984	
3534	0	33900	37456	48552	44928	
3535	0	34360	37456	48500	44908	
3536	0	34837	37432	48368	44884	
3537	0	34332	37628	48224	44860	
3538	0	33746	37428	48073	44752	
3539	0	34720	37204	47936	44680	
3540	0	33716	37264	47757	44640	
3541	0	34934	37208	47625	44568	
3542	0	35108	37228	47489	44480	
3543	0	34984	37280	47288	44360	
3544	0	35068	37261	47053	44168	
3545	0	35085	37336	46888	44081	
3546	0	35016	37337	46626	43912	
3547	0	34944	37356	46365	43706	
3548	0	35024	37236	46144	43598	
3549	0	35060	37136	45896	43414	
3550	0	34956	37202	45648	43168	
3551	0	35122	37117	45428	42928	
3552	0	35144	37088	45105	42768	
3553	0	35352	37092	44833	42533	
3554	0	35381	37080	44548	42204	
3555	0	35446	37160	44284	42020	
3556	0	35420	37220	44056	41720	
3557	0	35392	37160	43724	41460	
3558	0	35300	37309	43385	41194	
3559	0	35240	37426	43074	41040	
3560	0	35264	37544	42832	40684	
3561	0	35332	37745	42468	40528	
3562	0	35272	37836	42276	40256	
3563	0	35212	38064	41952	39950	
3564	0	35417	37816	41504	39768	
3565	0	35296	38000	41184	39444	
3566	0	35392	38328	40992	39138	
3567	0	35812	38625	40648	38916	
3568	0	35888	39272	40276	38636	
3569	0	36076	39680	39945	38408	
3570	0	35892	40040	39602	38202	
3571	0	35634	40536	39240	37908	
3572	0	35048	41124	38920	37764	
3573	0	34552	42176	38608	37524	
3574	0	34864	43472	38234	37176	
3575	0	34612	45281	37941	37020	
3576	0	33736	45960	37604	36728	
3577	0	33800	44708	37268	36485	
3578	0	35700	43600	36936	36268	
3579	0	36808	43096	36608	36000	
3580	0	35524	42052	36284	35736	
3581	0	37772	41281	35948	35552	
3582	0	36056	40404	35648	35284	
3583	0	32448	38536	35333	35048	
3584	0	28036	36954	35012	34897	
3585	0	28781	35068	34660	34596	
3586	0	34524	34736	34380	34478	
3587	0	33176	35280	34096	34272	
3588	0	31472	37924	33764	33948	
3589	0	35232	33652	33492	33850	
3590	0	34512	29908	33192	33532	
3591	0	33646	33404	32900	33400	
3592	0	32496	33816	32621	33124	
3593	0	31581	33952	32340	32916	
3594	0	31862	34132	32100	32696	
3595	0	31682	34244	31818	32534	
3596	0	32057	34668	31561	32278	
3597	0	32428	34552	31348	32144	
3598	0	32544	34788	31060	31852	
3599	0	32434	35252	30824	31712	
3600	0	32452	35640	30580	31461	
3601	0	32309	35960	30336	31144	
3602	0	32584	36016	30104	30904	
3603	0	33032	36417	29872	30683	
3604	0	33230	36752	29628	30461	
3605	0	33432	37260	29389	30220	
3606	0	33704	38000	29116	29912	
3607	0	34068	38500	28886	29649	
3608	0	34388	38948	28660	29400	
3609	0	34800	39444	28444	29144	
3610	0	35360	39948	28194	28896	
3611	0	35936	40448	27960	28696	
3612	0	36800	40545	27692	28384	
3613	0	37968	41209	27416	28142	
3614	0	39091	41440	27208	27918	
3615	0	40324	41708	26924	27700	
3616	0	41860	41436	26744	27450	
3617	0	43336	40793	26440	27156	
3618	0	44464	39882	26276	26932	
3619	0	44656	38776	26046	26708	
3620	0	45224	37756	25749	26504	
3621	0	46148	35977	25569	26297	
3622	0	47912	34808	25354	26136	
3623	0	47252	34804	25105	25926	
3624	0	45264	35560	24884	25764	
3625	0	45424	37504	24633	25562	
3626	0	35904	40180	24374	25398	
3627	0	12024	46248	24165	25240	
3628	0	20780	37632	23980	25080	
3629	0	44180	35832	23786	24961	
3630	0	55306	42468	23554	24812	
3631	0	37840	29866	23389	24714	
3632	0	26776	47960	23128	24600	
3633	0	41668	30144	23024	24512	
3634	0	35160	38008	22817	24480	
3635	0	32864	38008	22604	24349	
3636	0	34656	36625	22392	24284	
3637	0	33228	38564	22219	24208	
3638	0	34340	37344	22108	24226	
3639	0	34235	37468	21969	24168	
3640	0	34692	37352	21840	24131	
